0	-9.065625	-73.5
0.0025	-9.940625	-113.2188
0.005	-9.40625	-79.90625
0.0075	-9.615625	-116.4688
0.01	-9.071875	-65.15625
0.0125	-8.864063	-43.21875
0.015	-8.309375	-96.5
0.0175	-7.825	-111.8438
0.02	-7.279688	-114.9375
0.0225	-6.770313	-97.125
0.025	-6.329688	-156.9062
0.0275	-6.009375	-185.5625
0.03	-5.832813	-234.5
0.0325	-5.8375	-147.4062
0.035	-6	-50.9375
0.0375	-6.182813	-106.5312
0.04	-6.246875	37.71875
0.0425	-6.14375	186.375
0.045	-5.9	336.375
0.0475	-5.553125	585.1875
0.05	-5.1625	772.75
0.0525	-4.721875	746.9062
0.055	-4.196875	714.6875
0.0575	-3.5875	735.8125
0.06	-2.904688	685.8125
0.0625	-2.184375	573.1875
0.065	-1.5	430.6562
0.0675	-0.8828125	299.7188
0.07	-0.2828125	131.0312
0.0725	0.1953125	-10.875
0.075	0.4234375	-122.5312
0.0775	0.4328125	-110.7188
0.08	0.2390625	-87.46875
0.0825	-0.1265625	-113.625
0.085	-0.5546875	-147.1562
0.0875	-0.9546875	-191
0.09	-1.314063	-113.625
0.0925	-1.61875	-190.8125
0.095	-1.851562	-153.3438
0.0975	-1.989063	-71.65625
0.1	-1.94375	-158.375
0.1025	-1.69375	-125.625
0.105	-1.3125	-112.6875
0.1075	-0.8703125	-109.9688
0.11	-0.515625	-150.1875
0.1125	-0.3671875	-126.0625
0.115	-0.3578125	-54.40625
0.1175	-0.3296875	-52.96875
0.12	-0.16875	-85.0625
0.1225	0.1609375	-140.4062
0.125	0.58125	-113.2188
0.1275	0.953125	-45.15625
0.13	1.189063	-87.875
0.1325	1.3375	-131.0312
0.135	1.435938	-102.3438
0.1375	1.378125	-95.5
0.14	1.18125	-85.0625
0.1425	0.965625	-133.7188
0.145	0.7421875	-116.2188
0.1475	0.4390625	-11.28125
0.15	0.0265625	-45.40625
0.1525	-0.4078125	-44.53125
0.155	-0.871875	-42.15625
0.1575	-1.390625	-96.0625
0.16	-1.857813	-76.625
0.1625	-2.270313	-27.75
0.165	-2.629688	-46.46875
0.1675	-2.870313	-86.71875
0.17	-3	-43.875
0.1725	-3.003125	-19.9375
0.175	-2.839063	-9.875
0.1775	-2.475	-34.46875
0.18	-1.875	8.1875
0.1825	-1.053125	61.34375
0.185	-0.065625	-55.125
0.1875	1.05625	-25.40625
0.19	2.332813	61.21875
0.1925	3.735938	45.03125
0.195	5.2375	55.21875
0.1975	6.882812	95.09375
0.2	8.526563	89.4375
0.2025	9.884375	84.1875
0.205	10.9	143.3438
0.2075	11.53125	105.0312
0.21	11.6875	35.09375
0.2125	11.5625	57.59375
0.215	11.32969	98.46875
0.2175	10.98594	30.40625
0.22	10.49375	72.375
0.2225	9.829688	168.4688
0.225	8.929688	88.375
0.2275	7.807813	115.4375
0.23	6.409375	87.78125
0.2325	4.692188	32.21875
0.235	2.925	86.03125
0.2375	1.120313	15.71875
0.24	-0.8515625	40.84375
0.2425	-3.042188	54.28125
0.245	-5.446875	69.0625
0.2475	-7.929688	163.3438
0.25	-10.20625	60.46875
0.2525	-11.99844	78.375
0.255	-13.14844	142.75
0.2575	-13.71563	19.1875
0.26	-13.94219	89.65625
0.2625	-13.98906	132.5
0.265	-13.85938	26.09375
0.2675	-13.47188	62.5
0.27	-12.84375	55.8125
0.2725	-12.11719	-0.8125
0.275	-11.45781	10.75
0.2775	-10.98438	-1.15625
0.28	-10.73906	11
0.2825	-10.675	55.59375
0.285	-10.74688	31.375
0.2875	-10.93594	-40.53125
0.29	-11.25313	-74.375
0.2925	-11.6875	-28.34375
0.295	-12.15313	18.53125
0.2975	-12.58281	9.25
0.3	-12.94063	-12.5
0.3025	-13.22344	-10.03125
0.305	-13.42813	-42.65625
0.3075	-13.55	1.25
0.31	-13.58594	5.5625
0.3125	-13.525	-64.21875
0.315	-13.34688	-27.6875
0.3175	-13.10313	-42.84375
0.32	-12.92188	-75.125
0.3225	-12.84219	-36.75
0.325	-12.83438	-0.21875
0.3275	-12.89219	25.28125
0.33	-13.00469	5.40625
0.3325	-13.17031	-19.28125
0.335	-13.40313	-14.65625
0.3375	-13.75781	4.96875
0.34	-14.24375	49.46875
0.3425	-14.72188	89.21875
0.345	-15.03281	28.0625
0.3475	-15.10938	86.09375
0.35	-14.97031	179.4375
0.3525	-14.70781	24.53125
0.355	-14.43281	-9.9375
0.3575	-14.18906	-17.40625
0.36	-13.9875	-76.0625
0.3625	-13.9	-108.0938
0.365	-13.99219	-117.6875
0.3675	-14.11406	-125.8438
0.37	-14.17656	-144.0938
0.3725	-14.27813	-106.5312
0.375	-14.5	-128.6562
0.3775	-14.82969	-147.5938
0.38	-15.16563	-60.34375
0.3825	-15.41406	-31.96875
0.385	-15.55938	-87.9375
0.3875	-15.61094	-115.3125
0.39	-15.62344	-98.84375
0.3925	-15.65938	-53.90625
0.395	-15.69531	-85.59375
0.3975	-15.73906	-100.25
0.4	-15.78438	-103.2188
0.4025	-15.77031	-112.4062
0.405	-15.69688	-111.625
0.4075	-15.5875	-198.0625
0.41	-15.46406	-159.1562
0.4125	-15.34375	-109.9688
0.415	-15.22188	-119.1875
0.4175	-15.00156	-174.0625
0.42	-14.6625	-116.25
0.4225	-14.27969	29
0.425	-13.95625	19.9375
0.4275	-13.83125	151.625
0.43	-13.76562	449.0938
0.4325	-13.57812	608.5
0.435	-13.21094	637.5938
0.4375	-12.57969	723.1562
0.44	-11.71719	731.4375
0.4425	-10.70938	727.625
0.445	-9.585938	743.5312
0.4475	-8.429688	619.2812
0.45	-7.35	506.5312
0.4525	-6.376563	328.4062
0.455	-5.492188	89.46875
0.4575	-4.729687	44.90625
0.46	-4.103125	-72.90625
0.4625	-3.615625	-166.9062
0.465	-3.326563	-125.9688
0.4675	-3.217188	-178
0.47	-3.1875	-184.25
0.4725	-3.239063	-155.9688
0.475	-3.407813	-155.5
0.4775	-3.742188	-169.8125
0.48	-4.276562	-145.5312
0.4825	-4.921875	-146.5312
0.485	-5.546875	-165.9062
0.4875	-6.04375	-141.6562
0.49	-6.348438	-149.3125
0.4925	-6.417188	-145.7188
0.495	-6.24375	-131.4375
0.4975	-5.967188	-152.0938
0.5	-5.692188	-191.8125
0.5025	-5.353125	-111.8125
0.505	-4.873438	-105.6562
0.5075	-4.182812	-82.125
0.51	-3.284375	-58.34375
0.5125	-2.310938	-94.25
0.515	-1.448438	-119.0625
0.5175	-0.875	-120.25
0.52	-0.653125	-97.5
0.5225	-0.6546875	-145.5938
0.525	-0.7921875	-111.2188
0.5275	-1.059375	-62.875
0.53	-1.417188	-54.1875
0.5325	-1.895313	-37.90625
0.535	-2.45	-89.0625
0.5375	-2.9875	-94.90625
0.54	-3.4625	-46.9375
0.5425	-3.770313	-72.9375
0.545	-3.846875	-66.53125
0.5475	-3.84375	-78.6875
0.55	-3.853125	-54.90625
0.5525	-3.790625	48.5
0.555	-3.723438	23.90625
0.5575	-3.692188	-4
0.56	-3.578125	-8.90625
0.5625	-3.310938	18.96875
0.565	-2.817188	52.90625
0.5675	-2.007812	-1.5
0.57	-0.7296875	44.6875
0.5725	1.104688	55.65625
0.575	3.353125	49.84375
0.5775	5.809375	59.4375
0.58	8.220313	1.78125
0.5825	10.325	69.28125
0.585	12.11406	85.46875
0.5875	13.71094	24.5625
0.59	14.98906	52.78125
0.5925	15.88125	146.0938
0.595	16.49531	146
0.5975	16.86406	114.375
0.6	17.05469	175.8438
0.6025	17.07031	71.21875
0.605	16.825	-11.34375
0.6075	16.26562	169.625
0.61	15.37344	147.7812
0.6125	14.11406	63.1875
0.615	12.48594	134.1875
0.6175	10.58594	150.6562
0.62	8.526563	135.0312
0.6225	6.375	72.78125
0.625	4.190625	117.2812
0.6275	1.990625	222.2812
0.63	-0.21875	141.5938
0.6325	-2.407813	122.5
0.635	-4.575	123.1562
0.6375	-6.646875	103.3125
0.64	-8.553125	120.8125
0.6425	-10.31406	106.9062
0.645	-11.95	168.5938
0.6475	-13.38594	117.1875
0.65	-14.47031	50.46875
0.6525	-15.14531	67
0.655	-15.47031	76.28125
0.6575	-15.55625	69.0625
0.66	-15.475	56.3125
0.6625	-15.23594	43.625
0.665	-14.83438	37.96875
0.6675	-14.29844	39.90625
0.67	-13.66563	54.28125
0.6725	-12.94531	51.09375
0.675	-12.22031	57.71875
0.6775	-11.6125	24.59375
0.68	-11.11875	5.1875
0.6825	-10.72188	79.84375
0.685	-10.5125	25.09375
0.6875	-10.50469	23.625
0.69	-10.575	26.40625
0.6925	-10.70938	-0.96875
0.695	-10.92813	82.9375
0.6975	-11.20469	40.15625
0.7	-11.47344	75.25
0.7025	-11.64844	52.5625
0.705	-11.73906	-2.40625
0.7075	-11.73281	24.53125
0.71	-11.68438	-36.65625
0.7125	-11.67813	88.84375
0.715	-11.67344	152.4375
0.7175	-11.65156	34.53125
0.72	-11.57969	79.9375
0.7225	-11.40781	117.1562
0.725	-11.21094	84.90625
0.7275	-11.07188	94.375
0.73	-10.99375	15.84375
0.7325	-11.03125	-25.15625
0.735	-11.18281	52.84375
0.7375	-11.33594	105.3125
0.74	-11.41719	56.09375
0.7425	-11.34531	29.5625
0.745	-11.09688	60.65625
0.7475	-10.71094	7.84375
0.75	-10.25938	39.125
0.7525	-9.814063	-12.46875
0.755	-9.425	-40.875
0.7575	-9.095313	46.59375
0.76	-8.785938	-37.84375
0.7625	-8.46875	-23.34375
0.765	-8.092187	-65.9375
0.7675	-7.707813	-50.40625
0.77	-7.404688	-14.53125
0.7725	-7.179688	-93.4375
0.775	-6.979688	-62.96875
0.7775	-6.76875	-108.75
0.78	-6.55	-137.75
0.7825	-6.317188	-42.46875
0.785	-6.129688	-36.6875
0.7875	-6.01875	-109.125
0.79	-5.990625	-64.09375
0.7925	-6.142188	-75.125
0.795	-6.5375	-127.9062
0.7975	-7.103125	-127.8438
0.8	-7.660938	-134.0312
0.8025	-8.057813	-74.5
0.805	-8.203125	-81.625
0.8075	-8.076562	-58.1875
0.81	-7.785938	-10.0625
0.8125	-7.467188	194.3438
0.815	-7.165625	381.9375
0.8175	-6.864063	544.6875
0.82	-6.467188	680.4062
0.8225	-5.951563	738.9688
0.825	-5.409375	885.9375
0.8275	-4.970313	864.875
0.83	-4.73125	883.4062
0.8325	-4.78125	785.5625
0.835	-5.176563	576.9062
0.8375	-5.80625	506.7188
0.84	-6.495313	306.3125
0.8425	-6.970313	158.4688
0.845	-7.135938	93.8125
0.8475	-7.09375	-50.875
0.85	-6.85	-118.75
0.8525	-6.490625	-142.75
0.855	-6.104688	-193.375
0.8575	-5.639063	-183.8125
0.86	-5.079688	-107.9688
0.8625	-4.471875	-103.1875
0.865	-3.815625	-161.2188
0.8675	-3.154688	-133.6562
0.87	-2.534375	-145.4062
0.8725	-2.015625	-166.2812
0.875	-1.64375	-149.125
0.8775	-1.423438	-169.3125
0.88	-1.41875	-114.4062
0.8825	-1.689063	-183.5938
0.885	-2.246875	-196.75
0.8875	-3.046875	-130.25
0.89	-3.923438	-112
0.8925	-4.714062	-91.71875
0.895	-5.320312	-146.0625
0.8975	-5.557813	-122.7812
0.9	-5.364063	-83.46875
0.9025	-4.867188	-124.1562
0.905	-4.23125	-87.03125
0.9075	-3.579688	-51.15625
0.91	-2.940625	-156.5312
0.9125	-2.35	-107.9688
0.915	-1.903125	-50.03125
0.9175	-1.671875	-147.6875
0.92	-1.659375	-108.3438
0.9225	-1.782813	-28.15625
0.925	-2.003125	-46.375
0.9275	-2.296875	-84.34375
0.93	-2.607813	-59.46875
0.9325	-2.982813	3.40625
0.935	-3.459375	-56.8125
0.9375	-3.959375	-96.40625
0.94	-4.367188	-80.1875
0.9425	-4.6125	-121.5
0.945	-4.610938	-1.8125
0.9475	-4.254688	6.1875
0.95	-3.48125	-33.25
0.9525	-2.292188	10.1875
0.955	-0.8296875	13.84375
0.9575	0.9	15.8125
0.96	3.0375	-10.875
0.9625	5.535938	14.5
0.965	8.2875	-0.59375
0.9675	11.09375	47.59375
0.97	13.56563	93.96875
0.9725	15.52344	37.34375
0.975	16.99063	7.5
0.9775	17.90156	67.65625
0.98	18.36563	133.4688
0.9825	18.54063	143.5938
0.985	18.40312	137.5
0.9875	17.94844	87.25
0.99	17.17656	85.25
0.9925	16.02969	151.0312
0.995	14.64375	163.4062
0.9975	13.31094	99.28125
1	12.14062	43.0625
1.0025	11.02031	19.8125
1.005	9.809375	67.125
1.0075	8.385938	153.0312
1.01	6.6625	137.3125
1.0125	4.6875	41.25
1.015	2.579688	93.25
1.0175	0.40625	149.5312
1.02	-1.745313	100.3438
1.0225	-3.771875	76.78125
1.025	-5.598438	32.0625
1.0275	-7.192188	28.84375
1.03	-8.553125	65.15625
1.0325	-9.771875	12.25
1.035	-10.89062	-18.09375
1.0375	-11.84063	-31.40625
1.04	-12.5875	30.875
1.0425	-13.14062	126.7812
1.045	-13.57656	23.875
1.0475	-13.97969	4.5625
1.05	-14.42188	54.5625
1.0525	-14.97656	33.5625
1.055	-15.58594	9.03125
1.0575	-16.07969	-0.8125
1.06	-16.45781	1.25
1.0625	-16.80313	4.375
1.065	-17.04688	65.5
1.0675	-17.15938	4.21875
1.07	-17.1625	4.09375
1.0725	-17.08281	34.71875
1.075	-16.97969	6.15625
1.0775	-16.87187	-21.0625
1.08	-16.76406	-8.6875
1.0825	-16.64688	74.40625
1.085	-16.51719	16.65625
1.0875	-16.38438	-24.90625
1.09	-16.27344	9.65625
1.0925	-16.24063	-35.875
1.095	-16.3125	-17.28125
1.0975	-16.3875	72.28125
1.1	-16.34219	34.6875
1.1025	-16.14531	16.40625
1.105	-15.83125	46.84375
1.1075	-15.51094	21.375
1.11	-15.27031	-0.78125
1.1125	-15.12344	20.75
1.115	-15.04688	76.375
1.1175	-15.00313	54.53125
1.12	-14.99219	14.75
1.1225	-15.06875	-16.40625
1.125	-15.23906	45.15625
1.1275	-15.45156	43.0625
1.13	-15.63281	39.03125
1.1325	-15.6625	113.5312
1.135	-15.49375	-9.1875
1.1375	-15.16563	-40.0625
1.14	-14.7	-27.96875
1.1425	-14.09844	-67.03125
1.145	-13.375	-5.6875
1.1475	-12.57969	-52.1875
1.15	-11.77656	-128.8125
1.1525	-11.00625	-60.875
1.155	-10.35313	-34.53125
1.1575	-9.835938	-59.65625
1.16	-9.4375	-37.75
1.1625	-9.148438	-19.125
1.165	-8.879688	-53.71875
1.1675	-8.576562	-110.1562
1.17	-8.282813	-5.25
1.1725	-8.095313	0.4375
1.175	-8.03125	-93.40625
1.1775	-8.089063	-43.875
1.18	-8.203125	-57.84375
1.1825	-8.251563	-17.625
1.185	-8.142188	-0.9375
1.1875	-7.825	-76.625
1.19	-7.36875	-144.8125
1.1925	-6.848438	-150.9062
1.195	-6.289062	-28.78125
1.1975	-5.732813	-34.28125
1.2	-5.175	38.75
1.2025	-4.621875	250.4062
1.205	-4.175	430.0625
1.2075	-3.96875	604
1.21	-4.021875	690.9062
1.2125	-4.271875	781.2812
1.215	-4.542187	789.125
1.2175	-4.698437	756.0312
1.22	-4.74375	694.7188
1.2225	-4.673438	601.5312
1.225	-4.560938	490.8125
1.2275	-4.453125	378.5
1.23	-4.321875	157.1562
1.2325	-4.19375	25.6875
1.235	-4.059375	12.125
1.2375	-3.909375	-87.6875
1.24	-3.823438	-86.96875
1.2425	-3.839063	-152.7188
1.245	-3.954688	-214.7812
1.2475	-4.101562	-192.6875
1.25	-4.21875	-123.0312
1.2525	-4.304688	-39.875
1.255	-4.392188	-45.25
1.2575	-4.545313	-62.03125
1.26	-4.751563	-52.375
1.2625	-4.951563	-145.4375
1.265	-5.139063	-139.3438
1.2675	-5.360938	-61.65625
1.27	-5.623438	-110.1875
1.2725	-5.89375	-125.6875
1.275	-6.123438	-24.15625
1.2775	-6.235938	-59.84375
1.28	-6.190625	-107.8438
1.2825	-5.964063	-21.75
1.285	-5.58125	-88.03125
1.2875	-5.14375	-155.75
1.29	-4.696875	-122.9688
1.2925	-4.267188	-93.21875
1.295	-3.95	-64.75
1.2975	-3.825	-69.875
1.3	-3.853125	-139.375
1.3025	-3.957813	-48.28125
1.305	-4.096875	-39.8125
1.3075	-4.260937	-112.9062
1.31	-4.4875	-66.875
1.3125	-4.723438	-35.4375
1.315	-4.971875	-7.78125
1.3175	-5.23125	3.53125
1.32	-5.339063	-52.03125
1.3225	-5.21875	-69.71875
1.325	-4.939063	9.5625
1.3275	-4.610938	1.1875
1.33	-4.248438	-31.9375
1.3325	-3.823438	34.4375
1.335	-3.254688	30.96875
1.3375	-2.390625	0.46875
1.34	-1.184375	0.15625
1.3425	0.315625	-8.75
1.345	2.054688	-7.71875
1.3475	4.05625	25.84375
1.35	6.392188	35.0625
1.3525	8.982812	-2.40625
1.355	11.76406	32.65625
1.3575	14.64219	-28.4375
1.36	17.37344	-10.90625
1.3625	19.89688	94.28125
1.365	22.16719	84.71875
1.3675	23.95156	95.21875
1.37	25.19219	18.84375
1.3725	25.97344	49.25
1.375	26.225	66.125
1.3775	25.9	63.96875
1.38	25.00469	104.3438
1.3825	23.59844	58.1875
1.385	21.85313	88.625
1.3875	19.94688	99.6875
1.39	18.07969	66.21875
1.3925	16.30781	89.625
1.395	14.60469	39.5
1.3975	12.96719	26.1875
1.4	11.34375	154.125
1.4025	9.696875	62.65625
1.405	8.007812	9.875
1.4075	6.251563	115.6562
1.41	4.38125	55.3125
1.4125	2.45625	62.90625
1.415	0.5375	149.5938
1.4175	-1.35	131.125
1.42	-3.20625	29.1875
1.4225	-5.05625	-67.5
1.425	-6.8625	-52.78125
1.4275	-8.540625	-30.28125
1.43	-10.025	57.21875
1.4325	-11.34688	82.46875
1.435	-12.52188	1.875
1.4375	-13.51719	68.65625
1.44	-14.29531	36.65625
1.4425	-14.88594	-27.25
1.445	-15.33594	52.8125
1.4475	-15.6625	48.125
1.45	-15.90781	-19.03125
1.4525	-16.02656	-2.53125
1.455	-16.03594	-1.65625
1.4575	-16.00781	-15.53125
1.46	-15.92344	14
1.4625	-15.74531	-4.46875
1.465	-15.40781	7.03125
1.4675	-14.97031	-35.875
1.47	-14.60469	2.5625
1.4725	-14.41875	78.59375
1.475	-14.52344	-30.25
1.4775	-14.94063	-11.96875
1.48	-15.51094	-12.0625
1.4825	-16.02031	-17.5625
1.485	-16.2875	60.34375
1.4875	-16.27969	53.59375
1.49	-16.05156	60.71875
1.4925	-15.68906	-28.625
1.495	-15.2875	-74.3125
1.4975	-14.87969	78
1.5	-14.5375	163.4688
1.5025	-14.29375	53.65625
1.505	-14.09219	-23.25
1.5075	-13.85938	43.375
1.51	-13.575	43.71875
1.5125	-13.32344	91.96875
1.515	-13.20469	116.4062
1.5175	-13.17813	111.9375
1.52	-13.14062	104.2188
1.5225	-13.11719	29.65625
1.525	-13.08281	-8.84375
1.5275	-12.98125	61.25
1.53	-12.80313	34.65625
1.5325	-12.55313	-34.4375
1.535	-12.225	26.125
1.5375	-11.75156	-24.78125
1.54	-11.15313	-0.15625
1.5425	-10.6875	31.0625
1.545	-10.60313	-35.59375
1.5475	-10.83906	-57.09375
1.55	-11.06875	-31.0625
1.5525	-10.96406	-78.71875
1.555	-10.45625	-81.8125
1.5575	-9.63125	-15.5625
1.56	-8.59375	-19.96875
1.5625	-7.4125	-10.96875
1.565	-6.107813	-68.5
1.5675	-4.7125	-14.46875
1.57	-3.271875	-0.09375
1.5725	-1.942188	-6.65625
1.575	-0.8375	-5.3125
1.5775	0.11875	-4.6875
1.58	0.91875	-2.28125
1.5825	1.484375	-98.90625
1.585	1.775	-78.40625
1.5875	1.73125	-27.71875
1.59	1.309375	-32.28125
1.5925	0.6125	79.65625
1.595	-0.21875	119.2188
1.5975	-1.15625	316.6562
1.6	-2.134375	607.6875
1.6025	-3.05	678.6562
1.605	-3.875	707.4375
1.6075	-4.589062	667.6562
1.61	-5.13125	712.375
1.6125	-5.451563	635.2188
1.615	-5.4875	552.3438
1.6175	-5.25625	481.375
1.62	-4.854688	320.5625
1.6225	-4.417187	162.4688
1.625	-4.079688	81.46875
1.6275	-3.839063	12.40625
1.63	-3.65625	-23.84375
1.6325	-3.489063	57.375
1.635	-3.35625	-16.34375
1.6375	-3.307813	-93.125
1.64	-3.329688	-75.875
1.6425	-3.39375	-157.625
1.645	-3.440625	-130.5
1.6475	-3.489063	-50.34375
1.65	-3.604688	-79.90625
1.6525	-3.754688	-79.96875
1.655	-3.954688	-84.90625
1.6575	-4.279688	-48.65625
1.66	-4.729687	-49.59375
1.6625	-5.245313	-90.34375
1.665	-5.707813	-82
1.6675	-5.992188	-53.28125
1.67	-6.032813	-75.1875
1.6725	-5.826563	-105.1875
1.675	-5.445312	-123.9375
1.6775	-5.0375	-27.9375
1.68	-4.698437	30.125
1.6825	-4.446875	-101.8125
1.685	-4.317188	-112.0312
1.6875	-4.360938	-34.8125
1.69	-4.610938	29.78125
1.6925	-5.01875	-14.96875
1.695	-5.489063	-97.65625
1.6975	-5.920313	-73.125
1.7	-6.264063	-67.75
1.7025	-6.559375	-70.65625
1.705	-6.782813	-59.125
1.7075	-6.945312	-102.7812
1.71	-7.228125	2.15625
1.7125	-7.721875	1.71875
1.715	-8.296875	-22.28125
1.7175	-8.820312	46.09375
1.72	-9.210938	-175.75
1.7225	-9.292188	-105.0312
1.725	-9.009375	66
1.7275	-8.498437	-57.25
1.73	-7.842188	-30.125
1.7325	-7.08125	-3.1875
1.735	-6.15625	-1.78125
1.7375	-4.953125	-13.53125
1.74	-3.357813	-38.75
1.7425	-1.2125	41.40625
1.745	1.504688	53.96875
1.7475	4.748438	55
1.75	8.30625	37.125
1.7525	11.68594	65.25
1.755	14.69844	63.15625
1.7575	17.37187	-28.625
1.76	19.62188	22.25
1.7625	21.50313	51.25
1.765	23.06875	75.90625
1.7675	24.17813	100.1562
1.77	24.72344	135.1562
1.7725	24.7125	146.625
1.775	24.23125	95.15625
1.7775	23.38906	133.3125
1.78	22.24375	91.53125
1.7825	20.78281	123.9375
1.785	19.00156	94.46875
1.7875	16.91875	21.0625
1.79	14.61094	103.5938
1.7925	12.175	92.0625
1.795	9.660938	89.8125
1.7975	7.18125	45.15625
1.8	4.760937	49.15625
1.8025	2.43125	65
1.805	0.2109375	11.84375
1.8075	-2.032812	54.9375
1.81	-4.276562	55.90625
1.8125	-6.365625	98.40625
1.815	-8.160938	71.65625
1.8175	-9.575	35.25
1.82	-10.52969	99.15625
1.8225	-11.125	16.5
1.825	-11.55313	33.84375
1.8275	-11.83125	103
1.83	-12.08125	20.25
1.8325	-12.41875	-42.75
1.835	-12.82812	-50.96875
1.8375	-13.29219	-20.9375
1.84	-13.74844	45.09375
1.8425	-14.20312	95.375
1.845	-14.73281	96.90625
1.8475	-15.27813	16.875
1.85	-15.70156	-45.53125
1.8525	-15.92344	30.5
1.855	-16.0125	30.21875
1.8575	-15.94219	19.03125
1.86	-15.64688	28.9375
1.8625	-15.11563	0.84375
1.865	-14.35625	5.34375
1.8675	-13.51094	-0.78125
1.87	-12.57656	-4.25
1.8725	-11.50781	-65.15625
1.875	-10.34531	18.84375
1.8775	-9.075	57.5625
1.88	-7.826563	80.21875
1.8825	-6.760938	33
1.885	-5.926563	-10.71875
1.8875	-5.348438	57.9375
1.89	-4.978125	-25.71875
1.8925	-4.804688	74.125
1.895	-4.840625	125.4062
1.8975	-5.1	75.625
1.9	-5.626563	94.46875
1.9025	-6.409375	55.90625
1.905	-7.378125	89.21875
1.9075	-8.364063	43.96875
1.91	-9.167188	13.0625
1.9125	-9.676563	28.78125
1.915	-9.854688	71.375
1.9175	-9.792188	81.1875
1.92	-9.579688	28.03125
1.9225	-9.226562	115.375
1.925	-8.78125	19.59375
1.9275	-8.285938	10.21875
1.93	-7.751563	4.53125
1.9325	-7.31875	-97.375
1.935	-7.170313	2.21875
1.9375	-7.296875	-16.59375
1.94	-7.559375	-90.71875
1.9425	-7.815625	-60.5625
1.945	-7.9875	-55.1875
1.9475	-8.064063	-77.40625
1.95	-8.067188	-112.3125
1.9525	-8.035938	-22.9375
1.955	-7.942188	14.75
1.9575	-7.671875	-66.28125
1.96	-7.170313	-59.65625
1.9625	-6.457813	-46.96875
1.965	-5.657813	-25.15625
1.9675	-4.975	-49.59375
1.97	-4.529688	-88.9375
1.9725	-4.315625	-74.03125
1.975	-4.296875	-98.65625
1.9775	-4.39375	-109.625
1.98	-4.548438	-98.9375
1.9825	-4.7625	-81.96875
1.985	-5.054688	5.96875
1.9875	-5.464063	48.84375
1.99	-6.042188	137.5938
1.9925	-6.765625	291.4688
1.995	-7.509375	471.25
1.9975	-8.153125	613.8125
2	-8.653125	616.7188
2.0025	-9.001563	561.0625
2.005	-9.23125	578.6562
2.0075	-9.420312	542
2.01	-9.585938	406.375
2.0125	-9.685938	364.4375
2.015	-9.620313	273.375
2.0175	-9.28125	66.875
2.02	-8.714063	27.84375
2.0225	-8.073438	-23.53125
2.025	-7.454688	-125.1875
2.0275	-7.010938	-115.7188
2.03	-6.792188	-92.5
2.0325	-6.695312	-43.4375
2.035	-6.690625	-89.71875
2.0375	-6.75	-105.6562
2.04	-6.901563	-96.8125
2.0425	-7.19375	-132.3125
2.045	-7.648438	-64.0625
2.0475	-8.146875	-53.09375
2.05	-8.485938	-220.9062
2.0525	-8.590625	-129.7812
2.055	-8.432813	-92.4375
2.0575	-8.042188	-108.4688
2.06	-7.507812	-41.40625
2.0625	-6.88125	-149.4688
2.065	-6.15	-112.0625
2.0675	-5.307813	-84.46875
2.07	-4.415625	-45.65625
2.0725	-3.532813	-106.9688
2.075	-2.739063	-117.2188
2.0775	-2.090625	-63.6875
2.08	-1.657813	-139.5312
2.0825	-1.5	-116.5312
2.085	-1.626563	-122.9688
2.0875	-1.982813	-97.375
2.09	-2.442188	-73.8125
2.0925	-2.890625	-22.5625
2.095	-3.203125	0.65625
2.0975	-3.389063	-154.9062
2.1	-3.423438	-202.3438
2.1025	-3.31875	-64.6875
2.105	-3.279688	-35.15625
2.1075	-3.275	-92.4375
2.11	-3.15625	-47.21875
2.1125	-2.917188	-13.59375
2.115	-2.625	-77
2.1175	-2.339063	-71.03125
2.12	-2.059375	-85.96875
2.1225	-1.823438	-145.4062
2.125	-1.621875	-59.90625
2.1275	-1.325	-18.6875
2.13	-0.75625	21.78125
2.1325	0.225	82.03125
2.135	1.6875	85.125
2.1375	3.739063	-7.4375
2.14	6.3	-68.40625
2.1425	9.110938	-44.25
2.145	11.95938	-40.1875
2.1475	14.58438	51.9375
2.15	16.89844	-26.5
2.1525	19.00156	-8
2.155	20.82812	121.4375
2.1575	22.35156	30.8125
2.16	23.61406	-82.9375
2.1625	24.55469	-90.59375
2.165	25.1375	160.4375
2.1675	25.34531	114.3125
2.17	25.17813	-28.3125
2.1725	24.65156	30.25
2.175	23.73594	-0.15625
2.1775	22.42031	66.84375
2.18	20.72813	66.78125
2.1825	18.69375	36.0625
2.185	16.37813	17.625
2.1875	13.85313	4.34375
2.19	11.17969	4.4375
2.1925	8.385938	25.40625
2.195	5.45	-31.8125
2.1975	2.414062	-60.84375
2.2	-0.5484375	58.25
2.2025	-3.239063	30.96875
2.205	-5.528125	-14.46875
2.2075	-7.36875	48.1875
2.21	-8.859375	34.1875
2.2125	-10.07656	-37.65625
2.215	-10.975	-50.875
2.2175	-11.54063	-126.0625
2.22	-11.82812	-96.28125
2.2225	-11.98281	-112.3438
2.225	-12.13281	-138.875
2.2275	-12.39062	-94.25
2.23	-12.9625	-102.125
2.2325	-13.92813	-88.0625
2.235	-15.19688	-110.9062
2.2375	-16.53438	-72.40625
2.24	-17.68125	-24.78125
2.2425	-18.52812	-11.96875
2.245	-19.01406	-27.5625
2.2475	-19.15312	-44.59375
2.25	-19.0125	-70.25
2.2525	-18.58125	-109.25
2.255	-17.88594	-154.75
2.2575	-17.05	-72.9375
2.26	-16.21406	-34.15625
2.2625	-15.40313	-92.625
2.265	-14.54688	-70.21875
2.2675	-13.70156	-91.90625
2.27	-12.9875	-120.5312
2.2725	-12.47656	-140.1562
2.275	-12.23281	-112.7188
2.2775	-12.20312	-26.71875
2.28	-12.37813	-149.1562
2.2825	-12.79688	-108.75
2.285	-13.30781	15.03125
2.2875	-13.80313	-35.78125
2.29	-14.28438	18.625
2.2925	-14.75313	-28.5625
2.295	-15.21875	-76.875
2.2975	-15.725	-78.21875
2.3	-16.26562	-90.65625
2.3025	-16.60625	-180.7812
2.305	-16.51719	-213.7188
2.3075	-15.98281	-57.4375
2.31	-15.16094	-21.90625
2.3125	-14.39062	-88.78125
2.315	-13.96563	-75.53125
2.3175	-13.92813	-10.0625
2.32	-14.15156	-113.6875
2.3225	-14.47969	-113.5625
2.325	-14.88125	-84.96875
2.3275	-15.3375	-190.7812
2.33	-15.73281	-142.2812
2.3325	-15.9875	-182.3438
2.335	-15.925	-133.0938
2.3375	-15.40938	-105.4688
2.34	-14.44375	-187.125
2.3425	-13.11406	-127.125
2.345	-11.58438	-134.2812
2.3475	-9.998438	-166.3125
2.35	-8.448438	-226.9375
2.3525	-7.021875	-220.1875
2.355	-5.810938	-106
2.3575	-4.842188	-82.03125
2.36	-4.175	-138.875
2.3625	-3.848438	-186.4062
2.365	-3.820312	-200.125
2.3675	-4.003125	-165.4688
2.37	-4.370312	-226.8438
2.3725	-4.892188	-252.8438
2.375	-5.370313	-186.3438
2.3775	-5.784375	-254.0938
2.38	-6.207813	-213.6562
2.3825	-6.589063	-179.7188
2.385	-6.857813	-114.9375
2.3875	-6.89375	100.5312
2.39	-6.629688	280.3125
2.3925	-6.107813	430.9375
2.395	-5.503125	444.5312
2.3975	-5.054688	396.375
2.4	-4.846875	449.3438
2.4025	-4.784375	387.1875
2.405	-4.75	287.0938
2.4075	-4.720313	288.1875
2.41	-4.703125	190.5312
2.4125	-4.640625	46.78125
2.415	-4.4125	-0.3125
2.4175	-4.004688	-154.7188
2.42	-3.4375	-216.0312
2.4225	-2.8	-142.2188
2.425	-2.3375	-218.25
2.4275	-2.104688	-207.6562
2.43	-1.979688	-241.5938
2.4325	-1.851562	-247.9688
2.435	-1.670313	-170.125
2.4375	-1.548438	-252
2.44	-1.571875	-307.7188
2.4425	-1.676563	-200.1875
2.445	-1.7375	-154.2188
2.4475	-1.684375	-214.3438
2.45	-1.578125	-232.4375
2.4525	-1.520313	-221.9062
2.455	-1.590625	-252.2812
2.4575	-1.782813	-217.5625
2.46	-1.946875	-178.7812
2.4625	-1.921875	-206.4688
2.465	-1.667188	-157.375
2.4675	-1.303125	-188.8125
2.47	-0.98125	-182.4062
2.4725	-0.775	-168.4062
2.475	-0.6578125	-189.6562
2.4775	-0.56875	-208.8438
2.48	-0.4828125	-240.2812
2.4825	-0.4484375	-158.8125
2.485	-0.453125	-223.75
2.4875	-0.4859375	-209.5312
2.49	-0.6734375	-153.5625
2.4925	-1.026563	-228.875
2.495	-1.540625	-160.0938
2.4975	-2.19375	-151.0938
2.5	-2.920313	-172.4688
2.5025	-3.784375	-232.7812
2.505	-4.660938	-245.5938
2.5075	-5.334375	-184.0625
2.51	-5.8375	-147.3125
2.5125	-6.203125	-111.9375
2.515	-6.392188	-195.9688
2.5175	-6.31875	-179.9688
2.52	-5.81875	-112.4688
2.5225	-4.820312	-146.2812
2.525	-3.354688	-144.3438
2.5275	-1.510938	-128.6875
2.53	0.5203125	-163.8125
2.5325	2.685938	-126.375
2.535	5.10625	-105.0312
2.5375	7.814063	-150.375
2.54	10.77813	-129.6875
2.5425	13.84375	-73.90625
2.545	16.62187	-64.75
2.5475	18.92969	-125.6875
2.55	20.82656	-131.5938
2.5525	22.20625	-124.4688
2.555	23.11875	-46.25
2.5575	23.70156	-27.75
2.56	23.81719	-133.9062
2.5625	23.32656	-138.8438
2.565	22.33594	-175.2188
2.5675	21.12031	-174.0938
2.57	19.87188	-94.375
2.5725	18.64062	-12.90625
2.575	17.38125	-24.1875
2.5775	16.05937	-60.46875
2.58	14.66875	-123.3438
2.5825	13.25781	-87.875
2.585	11.95156	-68.65625
2.5875	10.73438	-164.2812
2.59	9.51875	-154.3125
2.5925	8.239063	-123.25
2.595	6.792188	-160.5
2.5975	5.075	-142.4688
2.6	3.073438	-206.5312
2.6025	0.828125	-256.1562
2.605	-1.640625	-148.5938
2.6075	-4.226562	-204.5938
2.61	-6.720313	-159.9062
2.6125	-9.007812	-128.3438
2.615	-11.025	-160.5312
2.6175	-12.64531	-162.0625
2.62	-13.78594	-150.5938
2.6225	-14.56406	-160.2812
2.625	-15.22188	-260.7188
2.6275	-15.88438	-228.7188
2.63	-16.50938	-188.4688
2.6325	-16.9125	-176.375
2.635	-16.875	-144.4062
2.6375	-16.34375	-198.1562
2.64	-15.50313	-242.7188
2.6425	-14.61563	-203.1875
2.645	-13.86406	-197.9062
2.6475	-13.40781	-192.5
2.65	-13.29375	-245.0625
2.6525	-13.46563	-230
2.655	-13.79063	-151.9688
2.6575	-14.12656	-162.7188
2.66	-14.42656	-175.5938
2.6625	-14.6875	-207.9375
2.665	-14.88281	-278.25
2.6675	-15.04063	-203.3438
2.67	-15.17656	-90.3125
2.6725	-15.25625	-173.4688
2.675	-15.32188	-153
2.6775	-15.43125	-163.8438
2.68	-15.58438	-293.2188
2.6825	-15.76875	-200.0938
2.685	-15.99375	-156.7812
2.6875	-16.26719	-218.2188
2.69	-16.61094	-230.625
2.6925	-17.00156	-269.6562
2.695	-17.44688	-210.2188
2.6975	-17.9625	-240.2812
2.7	-18.45	-232.875
2.7025	-18.81719	-105.9375
2.705	-19.0125	-160.3438
2.7075	-19.03906	-194.0938
2.71	-18.97813	-106.375
2.7125	-18.81875	-106.5625
2.715	-18.49375	-181.0312
2.7175	-17.93125	-214.75
2.72	-17.06563	-271.7188
2.7225	-16.04844	-245.75
2.725	-15.0125	-139.9062
2.7275	-14.04688	-158.875
2.73	-13.29688	-274.8125
2.7325	-12.78906	-318.1562
2.735	-12.47344	-235.5312
2.7375	-12.26562	-173.0625
2.74	-12.06094	-249.4688
2.7425	-11.80938	-302.8438
2.745	-11.50938	-323.5938
2.7475	-11.19063	-310.625
2.75	-10.91094	-283.1875
2.7525	-10.71406	-226.4062
2.755	-10.59531	-181.4688
2.7575	-10.47031	-236.6875
2.76	-10.22656	-292.8438
2.7625	-9.8625	-228.2188
2.765	-9.392188	-188.9688
2.7675	-8.907813	-295.9375
2.77	-8.520313	-372.1875
2.7725	-8.204688	-309.6875
2.775	-7.857813	-335.375
2.7775	-7.465625	-333.2812
2.78	-7.034375	-244.625
2.7825	-6.55	-301
2.785	-6.0875	-181.7188
2.7875	-5.670313	-66.1875
2.79	-5.190625	126.3125
2.7925	-4.564063	259.4375
2.795	-3.876563	191.0625
2.7975	-3.278125	291.625
2.8	-2.8125	220.6875
2.8025	-2.484375	207.7188
2.805	-2.289062	262.4375
2.8075	-2.2625	132.5312
2.81	-2.365625	19.21875
2.8125	-2.507812	-66.21875
2.815	-2.664062	-123.4688
2.8175	-2.825	-230.625
2.82	-2.94375	-183.6562
2.8225	-2.975	-240.8125
2.825	-2.88125	-301.5625
2.8275	-2.667188	-351.375
2.83	-2.375	-421.125
2.8325	-1.998438	-345.1875
2.835	-1.603125	-310.1875
2.8375	-1.325	-282.5938
2.84	-1.20625	-319.0625
2.8425	-1.260938	-242.6875
2.845	-1.454688	-271.4375
2.8475	-1.679688	-377.6875
2.85	-1.884375	-276.3438
2.8525	-2.13125	-390.5625
2.855	-2.46875	-389.5938
2.8575	-2.867188	-306.25
2.86	-3.273438	-336.9688
2.8625	-3.589063	-349.5312
2.865	-3.76875	-354.9062
2.8675	-3.920313	-260.9062
2.87	-4.16875	-237.1562
2.8725	-4.675	-305.0938
2.875	-5.475	-275.5312
2.8775	-6.296875	-220.1562
2.88	-6.901563	-248.875
2.8825	-7.259375	-256.0312
2.885	-7.425	-348.5938
2.8875	-7.457813	-362.875
2.89	-7.395313	-231.8438
2.8925	-7.215625	-210.75
2.895	-6.879688	-242.5312
2.8975	-6.38125	-236.5
2.9	-5.71875	-325
2.9025	-4.985938	-322.0312
2.905	-4.379688	-243.7812
2.9075	-4.003125	-311.375
2.91	-3.871875	-319.5312
2.9125	-4.03125	-221.25
2.915	-4.359375	-142.4062
2.9175	-4.639063	-205.3125
2.92	-4.75	-214.9688
2.9225	-4.551563	-210.5938
2.925	-4.048438	-261.0625
2.9275	-3.323438	-256.125
2.93	-2.279688	-253.125
2.9325	-0.896875	-102
2.935	0.903125	-136.3125
2.9375	3.301563	-280.8438
2.94	6.215625	-225.4375
2.9425	9.496875	-142
2.945	12.87188	-225.5938
2.9475	15.94844	-295.9688
2.95	18.58125	-186.9062
2.9525	20.72344	-161.9062
2.955	22.27188	-156.0312
2.9575	23.30625	-100.875
2.96	24.06563	-123.6875
2.9625	24.65313	-182.0312
2.965	25	-203.6875
2.9675	24.98281	-220.5938
2.97	24.5375	-260.5625
2.9725	23.66719	-188.4062
2.975	22.425	-153.25
2.9775	20.84219	-139.9688
2.98	18.94219	-173
2.9825	16.79531	-158.875
2.985	14.50313	-171.9688
2.9875	12.26406	-200.0312
2.99	10.24688	-100.7188
2.9925	8.49375	-249.5312
2.995	6.959375	-133.75
2.9975	5.575	-71.71875
3	4.225	-198
3.0025	2.821875	-214.0312
3.005	1.46875	-187.5312
3.0075	0.115625	-158.9062
3.01	-1.404688	-268.0938
3.0125	-3.023438	-223.9688
3.015	-4.610938	-224.1562
3.0175	-6.071875	-202.75
3.02	-7.376563	-172.6875
3.0225	-8.48125	-273.0938
3.025	-9.390625	-242.4688
3.0275	-10.12656	-194.9375
3.03	-10.64062	-179.6562
3.0325	-10.95469	-176.4688
3.035	-11.125	-325.5625
3.0375	-11.14219	-394.0312
3.04	-10.92656	-275.875
3.0425	-10.45	-171.25
3.045	-9.825	-127.6562
3.0475	-9.23125	-200.9375
3.05	-8.854688	-285.6875
3.0525	-8.80625	-229.375
3.055	-8.98125	-253.7188
3.0575	-9.195312	-191.0938
3.06	-9.33125	-176.3125
3.0625	-9.4	-201.8438
3.065	-9.454688	-200.4688
3.0675	-9.470313	-248.9062
3.07	-9.423438	-158.2812
3.0725	-9.325	-195.375
3.075	-9.207813	-264.3438
3.0775	-9.14375	-201.4375
3.08	-9.292188	-123.3438
3.0825	-9.723438	-207.0625
3.085	-10.39531	-184.9375
3.0875	-11.27031	-190.3125
3.09	-12.26562	-198.0938
3.0925	-13.27656	-119.4062
3.095	-14.18906	-196.75
3.0975	-14.80625	-234.8438
3.1	-14.99063	-255.9375
3.1025	-14.80938	-147.125
3.105	-14.36719	-87.5625
3.1075	-13.77188	-134.9375
3.11	-13.07188	-133.1875
3.1125	-12.30469	-173.4062
3.115	-11.53438	-179.3125
3.1175	-10.82812	-156.4062
3.12	-10.32656	-246.2188
3.1225	-10.01406	-250.4375
3.125	-9.748438	-143.2812
3.1275	-9.5	-91.5
3.13	-9.285938	-157.1875
3.1325	-9.220313	-208.625
3.135	-9.534375	-206.4062
3.1375	-10.31563	-215.9062
3.14	-11.34375	-174.9688
3.1425	-12.2375	-208.625
3.145	-12.70625	-241.5625
3.1475	-12.65781	-276.2188
3.15	-12.13438	-337.375
3.1525	-11.25781	-369.625
3.155	-10.11875	-271.9062
3.1575	-8.701562	-147.375
3.16	-6.99375	-122.4062
3.1625	-5.128125	-149.5625
3.165	-3.373438	-261.0312
3.1675	-1.989063	-247.125
3.17	-1.157813	-138.75
3.1725	-0.9	-243.4062
3.175	-1.082812	-212.4375
3.1775	-1.55625	-157.2188
3.18	-2.19375	-244.5312
3.1825	-2.89375	-249.6875
3.185	-3.626563	-297.0312
3.1875	-4.398438	-285
3.19	-5.20625	-265.1562
3.1925	-5.879688	-126.4375
3.195	-6.203125	70.8125
3.1975	-6.10625	156.3438
3.2	-5.629688	269.4688
3.2025	-4.871875	276.8438
3.205	-3.984375	324.0625
3.2075	-3.160938	370.5312
3.21	-2.475	326.7812
3.2125	-1.95	208.6562
3.215	-1.60625	85.8125
3.2175	-1.364063	97.0625
3.22	-1.209375	-5.96875
3.2225	-1.167188	-103.3438
3.225	-1.220313	-81.71875
3.2275	-1.392188	-202.4375
3.23	-1.684375	-339.6562
3.2325	-2.045313	-273.2188
3.235	-2.440625	-216.7812
3.2375	-2.804688	-253.9375
3.24	-3.1	-194.2188
3.2425	-3.35	-130.0312
3.245	-3.659375	-157
3.2475	-4.121875	-234.9375
3.25	-4.601562	-254.8438
3.2525	-4.8875	-233.7812
3.255	-4.884375	-226.5625
3.2575	-4.820312	-163.8438
3.26	-4.995313	-149.0938
3.2625	-5.4875	-120.9375
3.265	-6.089063	-137.9688
3.2675	-6.4875	-243.9375
3.27	-6.584375	-175.4688
3.2725	-6.389063	-287.4375
3.275	-6.010938	-368.1875
3.2775	-5.54375	-263.5
3.28	-4.928125	-163.25
3.2825	-4.1	-136.5312
3.285	-3.170313	-206.0625
3.2875	-2.296875	-150.7188
3.29	-1.670313	-169.875
3.2925	-1.496875	-203.375
3.295	-1.820312	-143.5312
3.2975	-2.603125	-143.9375
3.3	-3.73125	-188.5625
3.3025	-5.035938	-197.8438
3.305	-6.36875	-220.5938
3.3075	-7.5	-108.3125
3.31	-8.320312	-112.75
3.3125	-8.909375	-188.7188
3.315	-9.254688	-93.5625
3.3175	-9.365625	-128.7812
3.32	-9.310937	-157
3.3225	-9.0625	-158.9375
3.325	-8.604688	-118.0312
3.3275	-7.98125	-116.7188
3.33	-7.260938	-156
3.3325	-6.570312	-112.5938
3.335	-6.046875	-137.8125
3.3375	-5.626563	-167.6875
3.34	-5.025	-206.5312
3.3425	-3.960938	-181.9062
3.345	-2.279688	-93.0625
3.3475	0.08125	-15.34375
3.35	3.004688	-89.5625
3.3525	6.2625	-41.21875
3.355	9.553125	-57.90625
3.3575	12.61875	-182.0625
3.36	15.41563	-55.5625
3.3625	17.80313	12.90625
3.365	19.58438	-3.34375
3.3675	20.73906	-106
3.37	21.34688	-85.625
3.3725	21.46094	13.375
3.375	21.15313	-44.96875
3.3775	20.46719	-75.875
3.38	19.46875	-12.53125
3.3825	18.29375	-20.09375
3.385	16.96719	-8.15625
3.3875	15.45938	1.75
3.39	13.62031	-123.2188
3.3925	11.29219	-38.9375
3.395	8.660938	67.09375
3.3975	6.028125	-47.1875
3.4	3.59375	-60.84375
3.4025	1.571875	-15.96875
3.405	0.0578125	-39.8125
3.4075	-1.09375	-67.78125
3.41	-2.098438	-15.03125
3.4125	-3.165625	-106.6875
3.415	-4.4	-75.125
3.4175	-5.826563	-23.96875
3.42	-7.339063	-164.625
3.4225	-8.520313	-79.875
3.425	-8.935937	-54.84375
3.4275	-8.04375	-54.21875
3.43	-5.498438	15.59375
3.4325	-2.2	-126.0312
3.435	1.017188	-149.1875
3.4375	3.701563	-63.8125
3.44	5.1	-146.9375
3.4425	5.30625	-130.1562
3.445	4.426563	-113.625
3.4475	2.060938	-89.875
3.45	-1.4625	-70.40625
3.4525	-5.2875	-114.2812
3.455	-8.714063	-103.4688
3.4575	-11.31719	-108.0312
3.46	-13.10781	-47.15625
3.4625	-14.20156	-39.46875
3.465	-14.65625	-95.84375
3.4675	-14.53594	-87.875
3.47	-13.77969	-96.65625
3.4725	-12.72656	-87.21875
3.475	-11.90938	-53.28125
3.4775	-12.44531	-28.5
3.48	-15.47813	-57.09375
3.4825	-17.61406	-110.5938
3.485	-15.52344	-176.4688
3.4875	-12.20312	-178.125
3.49	-10.49219	-48.3125
3.4925	-9.7875	-43.78125
3.495	-9.721875	-151.3125
3.4975	-9.960938	-151.4688
3.5	-9.704688	-47.8125
3.5025	-9.201562	-51.375
3.505	-9.1875	-34
3.5075	-9.79375	-43.59375
3.51	-10.71406	-52.8125
3.5125	-11.62031	2.09375
3.515	-12.12188	-62
3.5175	-12.35156	-37.34375
3.52	-12.36563	-10.46875
3.5225	-11.98906	-42.90625
3.525	-11.50781	-74.875
3.5275	-10.99844	-41.53125
3.53	-10.34531	109.4062
3.5325	-9.757812	-20.40625
3.535	-9.282813	-174.3125
3.5375	-8.801563	-98.46875
3.54	-8.489063	-82.96875
3.5425	-8.382812	-85.875
3.545	-8.392188	-109.2812
3.5475	-8.570312	-81.53125
3.55	-8.773438	-154.9375
3.5525	-8.873437	-203.1562
3.555	-8.920312	-123.125
3.5575	-9.051563	-144.0625
3.56	-9.342187	-109.875
3.5625	-9.75	-112.875
3.565	-10.26094	-101.9375
3.5675	-10.73438	-46.90625
3.57	-11.00625	-113.9688
3.5725	-11.05938	-140.75
3.575	-10.84375	-149.5
3.5775	-10.37813	-108.0625
3.58	-9.6	-85.15625
3.5825	-8.564063	-146.5
3.585	-7.660938	-112.6875
3.5875	-7.1	-116.8438
3.59	-6.926563	-78.5625
3.5925	-7.021875	-101.9062
3.595	-7.11875	-145.125
3.5975	-7.101562	-90.96875
3.6	-6.91875	-148.0312
3.6025	-6.651563	-83
3.605	-6.423438	-11.65625
3.6075	-6.19375	87.96875
3.61	-5.820312	235.8125
3.6125	-5.248438	223.4062
3.615	-4.507812	411.9062
3.6175	-3.751563	494.0938
3.62	-3.084375	502.9062
3.6225	-2.39375	495.8125
3.625	-1.784375	349.4062
3.6275	-1.20625	274.8125
3.63	-0.3921875	270.9375
3.6325	0.353125	241.9688
3.635	0.790625	95.28125
3.6375	1.0875	-32.625
3.64	1.246875	-95.9375
3.6425	1.217188	-250.5625
3.645	1.042188	-254.1875
3.6475	0.7953125	-93.5625
3.65	0.4578125	-170.8438
3.6525	0.0109375	-169.5625
3.655	-0.546875	-101.0938
3.6575	-1.103125	-123.0625
3.66	-1.582813	-96.9375
3.6625	-1.990625	-134.8125
3.665	-2.1875	-105.0625
3.6675	-2.209375	-45.875
3.67	-2.190625	-108.6562
3.6725	-2.29375	-160.5
3.675	-2.679688	-124.9375
3.6775	-3.226562	-59.25
3.68	-3.684375	-120.6562
3.6825	-4.004688	-163.7812
3.685	-4.292187	-88.75
3.6875	-4.626563	-76.15625
3.69	-5.073438	-152.7188
3.6925	-5.632812	-139.3125
3.695	-6.134375	-112.9062
3.6975	-6.434375	-125.5938
3.7	-6.607813	-128.1875
3.7025	-6.804688	-147.9062
3.705	-7.010938	-121.0938
3.7075	-7.267188	-62.78125
3.71	-7.5375	-53.9375
3.7125	-7.784375	-40.3125
3.715	-8.089063	-73.34375
3.7175	-8.515625	-111.4062
3.72	-9.05	-126.5625
3.7225	-9.540625	-126.0938
3.725	-10.03594	-13.125
3.7275	-10.64844	-54.28125
3.73	-11.23125	-120.4062
3.7325	-11.7	-103.6562
3.735	-12.05625	-70.5
3.7375	-12.22969	-26.25
3.74	-12.18281	-113.3125
3.7425	-11.87031	-32.625
3.745	-11.325	25
3.7475	-10.5	-43.375
3.75	-9.296875	-24.5625
3.7525	-7.692188	-33.5625
3.755	-5.560938	-8.96875
3.7575	-2.99375	-28.375
3.76	-0.128125	-60.8125
3.7625	3.046875	-42.875
3.765	6.253125	22.59375
3.7675	9.31875	-8.875
3.77	12.12344	-56.4375
3.7725	14.58594	-37.3125
3.775	16.8875	21.71875
3.7775	19.01875	64.34375
3.78	20.65	27.53125
3.7825	21.74688	0.3125
3.785	22.47969	61
3.7875	22.73281	67.96875
3.79	22.45312	56.90625
3.7925	21.61875	40.28125
3.795	20.40156	6.3125
3.7975	19.20781	73.5625
3.8	18.03438	46.59375
3.8025	16.78438	22.71875
3.805	15.47813	10.15625
3.8075	13.95469	4.15625
3.81	12.25469	113.25
3.8125	10.43594	58.03125
3.815	8.335938	12.375
3.8175	6.010938	46.78125
3.82	3.757812	26.03125
3.8225	1.796875	-31.3125
3.825	0.2453125	-67.09375
3.8275	-0.9453125	32.28125
3.83	-1.954688	10.21875
3.8325	-2.865625	-14.1875
3.835	-3.709375	-28.28125
3.8375	-4.360938	-21.65625
3.84	-4.796875	-40.25
3.8425	-5.110938	-100.625
3.845	-5.328125	-137.7188
3.8475	-5.607813	-122.75
3.85	-6.026563	-48.25
3.8525	-6.635938	-43.59375
3.855	-7.348438	-16.90625
3.8575	-8.053125	-88.84375
3.86	-8.9	-120.4688
3.8625	-9.792188	-32.875
3.865	-10.62969	-15.125
3.8675	-11.37656	-38.96875
3.87	-11.82344	-13.53125
3.8725	-11.88906	-24.90625
3.875	-11.6875	-101.5625
3.8775	-11.475	-93.4375
3.88	-11.52031	-71.09375
3.8825	-11.85313	-59.21875
3.885	-12.42813	4.3125
3.8875	-12.95312	-35.5
3.89	-13.08594	-94.53125
3.8925	-12.92656	-163.7188
3.895	-12.66563	-165.4375
3.8975	-12.49844	-130.9375
3.9	-12.35156	-114.7812
3.9025	-12.03125	-51.03125
3.905	-11.725	-34.9375
3.9075	-11.59219	-69.40625
3.91	-11.6875	-76.3125
3.9125	-11.77188	-31.15625
3.915	-11.66875	-75.84375
3.9175	-11.45625	-160.25
3.92	-11.05	-73.125
3.9225	-10.58281	10.96875
3.925	-10.24531	-60.28125
3.9275	-10.20781	-115
3.93	-10.28281	-203.625
3.9325	-10.39219	-121.5625
3.935	-10.70469	0.46875
3.9375	-11.03906	-0.46875
3.94	-11.2625	10.1875
3.9425	-11.30469	18.96875
3.945	-11.17188	-1.03125
3.9475	-10.95	-6.625
3.95	-10.64531	55.28125
3.9525	-10.20938	8.28125
3.955	-9.610938	-45.40625
3.9575	-8.884375	-64.5
3.96	-8.110938	-17
3.9625	-7.364063	-101.1562
3.965	-6.6375	-141.9688
3.9675	-6.025	-4.90625
3.97	-5.546875	-25.25
3.9725	-5.192188	-70.53125
3.975	-4.976562	-103.7812
3.9775	-4.85	-75.1875
3.98	-4.803125	-16.09375
3.9825	-4.9125	-82.46875
3.985	-5.176563	-97.625
3.9875	-5.557813	-22.96875
3.99	-5.9875	-46.375
3.9925	-6.225	-148.5625
3.995	-6.1875	-117.4688
3.9975	-5.946875	-58.71875
4	-5.653125	-138.375
4.0025	-5.376563	-194.7812
4.005	-5.004688	-133.5938
4.0075	-4.492188	-12.96875
4.01	-3.957813	-93.96875
4.0125	-3.435938	-163.875
4.015	-2.871875	-71.46875
4.0175	-2.176563	-71.03125
4.02	-1.445312	-89.8125
4.0225	-0.7140625	-104.1562
4.025	0.0390625	-114.0938
4.0275	0.659375	-93.65625
4.03	1.160937	-87
4.0325	1.498438	-54.59375
4.035	1.70625	110.2812
4.0375	1.9125	208.6875
4.04	2.123438	299.875
4.0425	2.278125	501.0625
4.045	2.267187	600.5625
4.0475	2.03125	597.125
4.05	1.56875	587.2188
4.0525	1.003125	515.1875
4.055	0.4453125	394.125
4.0575	-0.1984375	369.7188
4.06	-0.9046875	249.3438
4.0625	-1.5125	155.2188
4.065	-1.976562	107.4062
4.0675	-2.346875	-6.9375
4.07	-2.701563	-83.0625
4.0725	-2.96875	-149.7812
4.075	-3.13125	-112.5
4.0775	-3.304688	-124.9375
4.08	-3.471875	-157.5312
4.0825	-3.690625	-158.6562
4.085	-3.845313	-154.3125
4.0875	-3.853125	-129.2188
4.09	-4.017188	-211.125
4.0925	-4.40625	-210.0312
4.095	-5.004688	-230.1562
4.0975	-5.753125	-208.4062
4.1	-6.573438	-54.375
4.1025	-7.367188	-71.34375
4.105	-7.85625	-135.5625
4.1075	-7.954688	-116.5
4.11	-7.640625	-123.3438
4.1125	-6.9625	-194.25
4.115	-6.103125	-122.625
4.1175	-5.198438	-43.3125
4.12	-4.392188	-113.125
4.1225	-3.773438	-83.5
4.125	-3.301563	-13.65625
4.1275	-2.898438	-121.9062
4.13	-2.632812	-106.7812
4.1325	-2.575	-67.6875
4.135	-2.8625	-104.875
4.1375	-3.495313	-91.8125
4.14	-4.142188	-108
4.1425	-4.746875	-39.40625
4.145	-5.446875	-12.6875
4.1475	-6.076563	-48.75
4.15	-6.434375	-94.78125
4.1525	-6.609375	-81.5625
4.155	-6.64375	-72.5
4.1575	-6.59375	-136.5
4.16	-6.457813	-80.5625
4.1625	-6.170313	18.65625
4.165	-5.782813	-33.40625
4.1675	-5.178125	-98.71875
4.17	-4.25625	-27.625
4.1725	-3.139063	-25.375
4.175	-1.909375	-96.4375
4.1775	-0.6390625	-72.1875
4.18	0.6328125	-68.03125
4.1825	1.970313	-13.84375
4.185	3.464063	86.3125
4.1875	5.085938	43.25
4.19	6.926563	0.78125
4.1925	9.092187	-15.3125
4.195	11.4375	41.71875
4.1975	13.79844	93.625
4.2	15.93594	39.09375
4.2025	17.7375	77.5
4.205	19.24219	89.28125
4.2075	20.32188	28.34375
4.21	20.975	65.8125
4.2125	21.325	98.3125
4.215	21.38906	50.28125
4.2175	21.22969	54.375
4.22	20.81406	84.25
4.2225	20.075	37.34375
4.225	18.98594	62.71875
4.2275	17.50156	157.0312
4.23	15.80156	98.9375
4.2325	13.97344	68
4.235	12.02344	147.7812
4.2375	9.965625	138.3125
4.24	7.7375	114.2812
4.2425	5.465625	33.65625
4.245	3.279688	53.0625
4.2475	1.204688	78.6875
4.25	-0.70625	85.125
4.2525	-2.465625	123.0312
4.255	-4.089062	50.5
4.2575	-5.478125	70.8125
4.26	-6.457813	85.84375
4.2625	-6.865625	12.46875
4.265	-6.807813	5.71875
4.2675	-6.6625	25.3125
4.27	-6.740625	13.15625
4.2725	-7.115625	-51.75
4.275	-7.659375	-110.0938
4.2775	-8.164062	-26.875
4.28	-8.539062	53.65625
4.2825	-8.815625	11.75
4.285	-9.054688	-29
4.2875	-9.254688	30.5
4.29	-9.426563	75.5625
4.2925	-9.5375	58.15625
4.295	-9.54375	26.6875
4.2975	-9.485938	-13.78125
4.3	-9.342187	-19.6875
4.3025	-9.117188	18.5
4.305	-8.94375	-2.5
4.3075	-8.945312	-38.75
4.31	-9.15625	-61.3125
4.3125	-9.559375	-88.0625
4.315	-10.10156	-75
4.3175	-10.74219	-23.1875
4.32	-11.44688	-12.09375
4.3225	-12.13125	-69.84375
4.325	-12.68906	-52.4375
4.3275	-13.06719	-24.71875
4.33	-13.26562	-7.5625
4.3325	-13.27969	-24.53125
4.335	-13.14062	-74.3125
4.3375	-12.89062	-102.375
4.34	-12.52656	-31.625
4.3425	-12.12031	-0.21875
4.345	-11.82188	-57.0625
4.3475	-11.69063	-51.15625
4.35	-11.72031	-14.46875
4.3525	-11.8875	-13.28125
4.355	-12.14688	-81
4.3575	-12.47031	-53.1875
4.36	-12.80625	-29.90625
4.3625	-13.09531	-72.625
4.365	-13.2875	23.96875
4.3675	-13.31406	23.6875
4.37	-13.17188	6.59375
4.3725	-12.95469	88.25
4.375	-12.68906	-17.625
4.3775	-12.39531	-21.09375
4.38	-12.11094	19.53125
4.3825	-11.74063	-44.59375
4.385	-11.30469	39.125
4.3875	-10.98125	55.4375
4.39	-10.84375	-24.3125
4.3925	-10.87031	-22.46875
4.395	-10.975	23.28125
4.3975	-11.03594	20.65625
4.4	-10.95312	26.875
4.4025	-10.71563	5.8125
4.405	-10.38594	3.125
4.4075	-9.964063	30.125
4.41	-9.490625	-37.875
4.4125	-9	-85.8125
4.415	-8.473438	-64.09375
4.4175	-7.928125	-22.4375
4.42	-7.460938	-66.375
4.4225	-7.120313	-62.78125
4.425	-6.90625	-42.625
4.4275	-6.751563	-55.03125
4.43	-6.59375	-96.3125
4.4325	-6.395313	-106.0625
4.435	-6.15625	-21.0625
4.4375	-5.875	-7.375
4.44	-5.5125	-46.65625
4.4425	-5.125	-105.75
4.445	-4.748438	-64.34375
4.4475	-4.375	-6.53125
4.45	-4.0125	-35.875
4.4525	-3.7125	-53.9375
4.455	-3.478125	-135.0625
4.4575	-3.323438	-130.7188
4.46	-3.292188	-7.5625
4.4625	-3.326563	-71.15625
4.465	-3.403125	-89.71875
4.4675	-3.509375	-63.625
4.47	-3.565625	-47.25
4.4725	-3.570312	124.5625
4.475	-3.46875	293.3125
4.4775	-3.159375	490.8125
4.48	-2.7875	654.7812
4.4825	-2.44375	702.0312
4.485	-2.129688	734.1562
4.4875	-1.982813	756.7812
4.49	-2.021875	709.8438
4.4925	-2.195312	616.3125
4.495	-2.565625	531.9375
4.4975	-3.120313	476.5312
4.5	-3.651563	264.625
4.5025	-4.079688	125.6562
4.505	-4.41875	62.34375
4.5075	-4.5625	-56.34375
4.51	-4.523438	-30.09375
4.5125	-4.398438	-92.9375
4.515	-4.234375	-132.0312
4.5175	-3.979688	-100.6875
4.52	-3.6375	-161.0312
4.5225	-3.35	-196.1875
4.525	-3.2	-190.4375
4.5275	-3.134375	-152
4.53	-3.153125	-83.5625
4.5325	-3.351562	-27.71875
4.535	-3.675	-43.40625
4.5375	-4.00625	-154.7812
4.54	-4.295313	-145.0312
4.5425	-4.5125	-100
4.545	-4.58125	-147.8125
4.5475	-4.482813	-125.9688
4.55	-4.265625	-105.2812
4.5525	-3.979688	-104.9062
4.555	-3.670313	-131.9688
4.5575	-3.376563	-115.5312
4.56	-3.092188	-68.96875
4.5625	-2.875	-77.625
4.565	-2.720313	-56.6875
4.5675	-2.476562	-63.875
4.57	-2.378125	-147.3125
4.5725	-2.471875	-69.34375
4.575	-2.6375	5.5
4.5775	-2.91875	-89.5625
4.58	-3.23125	-54.40625
4.5825	-3.603125	-2.84375
4.585	-4.029688	-69.96875
4.5875	-4.485938	-66.96875
4.59	-5.060938	-66.78125
4.5925	-5.770313	-113.1875
4.595	-6.48125	-55.375
4.5975	-7.05625	-30.59375
4.6	-7.34375	-46.1875
4.6025	-7.254688	-3.34375
4.605	-6.853125	-2.34375
4.6075	-6.176563	-2.46875
4.61	-5.253125	-68.3125
4.6125	-3.973438	-64.03125
4.615	-2.3875	27.0625
4.6175	-0.7203125	-19.8125
4.62	1.15	-47.71875
4.6225	3.315625	-72.03125
4.625	5.75	26.53125
4.6275	8.420312	96.1875
4.63	11.18594	17.21875
4.6325	14.06563	59.5625
4.635	16.99219	96.78125
4.6375	19.65469	63.96875
4.64	21.9375	70.75
4.6425	23.77656	140.9375
4.645	25.10625	68.09375
4.6475	26.03906	-10.375
4.65	26.61094	34.625
4.6525	26.76094	40.65625
4.655	26.4	73.0625
4.6575	25.52188	124.9375
4.66	24.22969	142.2188
4.6625	22.60469	126.0625
4.665	20.70312	132.8125
4.6675	18.57969	116.5938
4.67	16.30313	103.75
4.6725	13.91094	119.25
4.675	11.47656	68.4375
4.6775	9.084375	104.0312
4.68	6.734375	133.5625
4.6825	4.415625	86.53125
4.685	2.0625	110.9375
4.6875	-0.3734375	93.25
4.69	-2.796875	73.53125
4.6925	-5.078125	79.625
4.695	-7.057813	-12.0625
4.6975	-8.576562	48.0625
4.7	-9.709375	87.5
4.7025	-10.47813	17.625
4.705	-10.8375	105.2812
4.7075	-10.98125	44.875
4.71	-11.13281	-3.0625
4.7125	-11.43281	6.84375
4.715	-11.83125	-28.65625
4.7175	-12.22031	32.59375
4.72	-12.53281	-53.28125
4.7225	-12.75938	-135.1562
4.725	-12.97813	15.1875
4.7275	-13.2	8.125
4.73	-13.30469	-18.5
4.7325	-13.16406	23.59375
4.735	-12.82031	-6.78125
4.7375	-12.38906	-7.46875
4.74	-12.02188	-58.0625
4.7425	-11.82812	-23.21875
4.745	-11.81094	10.21875
4.7475	-11.92344	-10.46875
4.75	-12.08125	-34.375
4.7525	-12.30469	-79.34375
4.755	-12.63906	-59.21875
4.7575	-13.05313	-17.9375
4.76	-13.49063	-61.15625
4.7625	-13.80469	-55.84375
4.765	-13.90156	-34.5625
4.7675	-13.77188	-7.53125
4.77	-13.46094	-2.375
4.7725	-13.05313	-44.5625
4.775	-12.6125	-4.34375
4.7775	-12.15781	-83.125
4.78	-11.54375	-185.875
4.7825	-10.78438	-103.9062
4.785	-10.12813	30.15625
4.7875	-9.695312	-4.5
4.79	-9.4625	-5.21875
4.7925	-9.335938	45.34375
4.795	-9.26875	-27.9375
4.7975	-9.28125	-83.46875
4.8	-9.325	-56.84375
4.8025	-9.339063	-20.375
4.805	-9.31875	-40.3125
4.8075	-9.276563	-2.625
4.81	-9.229688	-51.09375
4.8125	-9.190625	-121.9375
4.815	-9.096875	-61.15625
4.8175	-8.995313	-42.6875
4.82	-8.978125	30.65625
4.8225	-8.971875	64.71875
4.825	-8.929688	-71.6875
4.8275	-8.8375	-43.15625
4.83	-8.610938	57.53125
4.8325	-8.2875	-3
4.835	-7.929688	35.6875
4.8375	-7.520313	31.28125
4.84	-7.065625	-1.84375
4.8425	-6.528125	10.625
4.845	-5.971875	-56.5625
4.8475	-5.423438	-33.53125
4.85	-4.88125	-60.71875
4.8525	-4.423438	-116.8438
4.855	-4.076563	-182.125
4.8575	-3.890625	-204.625
4.86	-3.839063	-43.28125
4.8625	-3.832813	29.71875
4.865	-3.867188	-81.875
4.8675	-3.914062	-87.84375
4.87	-3.970313	-84.96875
4.8725	-4.129688	-120.4688
4.875	-4.373438	-51.8125
4.8775	-4.5875	-114.4375
4.88	-4.732813	-83.875
4.8825	-4.710938	-5.78125
4.885	-4.440625	-68.78125
4.8875	-3.964063	-67.75
4.89	-3.278125	-64.4375
4.8925	-2.546875	-135.625
4.895	-1.948438	-166.5312
4.8975	-1.4	-116.7188
4.9	-0.7484375	-172.4375
4.9025	-0.0359375	-196.4688
4.905	0.546875	-110.0938
4.9075	0.90625	-113.8125
4.91	1.075	-86.15625
4.9125	1.134375	67.125
4.915	1.123438	216.6875
4.9175	1.064063	364.125
4.92	0.9875	554.375
4.9225	0.8828125	716.125
4.925	0.765625	758.4062
4.9275	0.6515625	688.9062
4.93	0.5109375	711.9062
4.9325	0.3734375	779.9375
4.935	0.2875	733.9688
4.9375	0.1734375	621.9062
4.94	-0.0109375	455.5
4.9425	-0.178125	295.9375
4.945	-0.29375	96.78125
4.9475	-0.3375	14.1875
4.95	-0.309375	-60.625
4.9525	-0.2359375	-117.4062
4.955	-0.14375	-136.6562
4.9575	-0.0578125	-265.75
4.96	0.0125	-110.6562
4.9625	0.021875	-135.25
4.965	-0.0953125	-270.4062
4.9675	-0.3078125	-161.5
4.97	-0.565625	-176.625
4.9725	-0.8859375	-178.375
4.975	-1.239063	-161.0625
4.9775	-1.685938	-211.8438
4.98	-2.26875	-172.3125
4.9825	-2.934375	-117.2188
4.985	-3.553125	-189.4062
4.9875	-4.039062	-190.6875
4.99	-4.496875	-165.7188
4.9925	-4.964063	-204.6875
4.995	-5.298438	-175.2188
4.9975	-5.34375	-165.25
5	-5.2125	-220.0312
5.0025	-4.998438	-178.1562
5.005	-4.625	-123.3438
5.0075	-4.090625	-148.4375
5.01	-3.471875	-171.25
5.0125	-2.859375	-97.375
5.015	-2.260938	-67.90625
5.0175	-1.709375	-116.6562
5.02	-1.20625	-104.625
5.0225	-0.7	-72.0625
5.025	-0.05625	-63.65625
5.0275	0.665625	-138.5938
5.03	1.154688	-132.5938
5.0325	1.396875	-37.78125
5.035	1.467188	23.59375
5.0375	1.245313	-114.2812
5.04	0.6984375	-175.7812
5.0425	0.1515625	-118.4688
5.045	-0.053125	-187.1562
5.0475	0.046875	-71.1875
5.05	0.3015625	-19.03125
5.0525	0.7265625	-5.84375
5.055	1.398438	30.71875
5.0575	2.434375	-84.375
5.06	4.017188	-62.34375
5.0625	5.984375	13.34375
5.065	8.101562	-13.1875
5.0675	10.41563	-93.34375
5.07	12.87344	-31.84375
5.0725	15.35625	56.1875
5.075	17.6875	44.28125
5.0775	19.70938	60.3125
5.08	21.54688	57.53125
5.0825	23.1375	55.6875
5.085	24.21406	30.75
5.0875	24.82188	72.6875
5.09	25.03281	121
5.0925	24.75938	130.125
5.095	24.025	67.65625
5.0975	22.93594	80.875
5.1	21.56563	124.8125
5.1025	20.02656	85.1875
5.105	18.33125	101.7188
5.1075	16.36406	72.46875
5.11	14.21094	71.09375
5.1125	11.98281	66.4375
5.115	9.679688	-30.9375
5.1175	7.4375	5.46875
5.12	5.3875	108.375
5.1225	3.6	139.8438
5.125	2.084375	169.4375
5.1275	0.7171875	59.40625
5.13	-0.54375	38.46875
5.1325	-1.796875	35.75
5.135	-3.084375	-58.78125
5.1375	-4.2875	-20.875
5.14	-5.428125	114.75
5.1425	-6.496875	104.9375
5.145	-7.45	-3.71875
5.1475	-8.257812	4.90625
5.15	-8.9125	12.65625
5.1525	-9.453125	-45.96875
5.155	-9.839063	-105
5.1575	-10.01406	-55.34375
5.16	-10.01562	-44.46875
5.1625	-9.990625	-78.5
5.165	-10.00938	-25.78125
5.1675	-10.09531	-3.1875
5.17	-10.26094	-19.46875
5.1725	-10.46094	-36.65625
5.175	-10.65938	-43
5.1775	-10.78594	-34.65625
5.18	-10.80313	0.96875
5.1825	-10.78594	-22.09375
5.185	-10.77969	-40.71875
5.1875	-10.79531	-15.5
5.19	-10.8875	-53.3125
5.1925	-11.02813	-57.125
5.195	-11.11875	-80.96875
5.1975	-11.16875	-89.1875
5.2	-11.18125	-47.3125
5.2025	-11.19219	-71.09375
5.205	-11.19531	-100.25
5.2075	-11.06875	-80.46875
5.21	-10.82812	-149.9062
5.2125	-10.55938	-139.6875
5.215	-10.34063	-43.875
5.2175	-10.16875	-131.5938
5.22	-9.954688	-140.9688
5.2225	-9.701563	-71.375
5.225	-9.475	-25.53125
5.2275	-9.248437	57.90625
5.23	-9.1125	-42.125
5.2325	-9.2	-87.53125
5.235	-9.45	-29.125
5.2375	-9.71875	-120.25
5.24	-9.890625	-68.1875
5.2425	-9.967188	-50.8125
5.245	-10.02656	-74.5
5.2475	-10.07344	-28.5625
5.25	-10.11094	-51.8125
5.2525	-10.11406	-78.0625
5.255	-10.07031	-109.5312
5.2575	-9.989063	-86.6875
5.26	-9.828125	-38.1875
5.2625	-9.51875	8.46875
5.265	-9.078125	-44.84375
5.2675	-8.585938	-64
5.27	-8.159375	-77.90625
5.2725	-7.876563	-46.9375
5.275	-7.735938	10.0625
5.2775	-7.646875	-41.875
5.28	-7.492188	-13.125
5.2825	-7.271875	3.75
5.285	-7.0125	-33.625
5.2875	-6.759375	-9.625
5.29	-6.56875	-64.5625
5.2925	-6.41875	-128.75
5.295	-6.23125	-59.5
5.2975	-6.001563	-163.4375
5.3	-5.792188	-194.875
5.3025	-5.651563	-126.5625
5.305	-5.585938	-208.3125
5.3075	-5.559375	-106.6875
5.31	-5.553125	-103.1875
5.3125	-5.560938	-172.6562
5.315	-5.596875	-169.625
5.3175	-5.603125	-166.7188
5.32	-5.529688	-140.2812
5.3225	-5.426563	-175.7812
5.325	-5.390625	-169.9062
5.3275	-5.426563	-164
5.33	-5.365625	-137.3125
5.3325	-5.207813	-144.5
5.335	-4.940625	-151.5625
5.3375	-4.465625	-154.875
5.34	-3.9	-218.8125
5.3425	-3.370313	-205.1562
5.345	-2.839063	-193.6562
5.3475	-2.310938	-147.0312
5.35	-1.846875	-101.875
5.3525	-1.434375	-4.375
5.355	-1.098437	154.125
5.3575	-0.865625	380
5.36	-0.69375	596.7812
5.3625	-0.575	752.0938
5.365	-0.4984375	842.875
5.3675	-0.4484375	829.25
5.37	-0.396875	888.7812
5.3725	-0.2640625	840.375
5.375	-0.009375	787.125
5.3775	0.3203125	628.3125
5.38	0.665625	377.4062
5.3825	1.045313	226.1562
5.385	1.33125	31.71875
5.3875	1.432813	-18.34375
5.39	1.4625	-73.46875
5.3925	1.415625	-151.75
5.395	1.46875	-113.2188
5.3975	1.559375	-145.9688
5.4	1.470313	-206.0312
5.4025	1.409375	-269.9375
5.405	1.415625	-244.4062
5.4075	1.36875	-218.4062
5.41	1.282813	-192.25
5.4125	1.251563	-216.3125
5.415	1.223438	-232.9688
5.4175	1.10625	-197
5.42	0.8796875	-242.5312
5.4225	0.6828125	-235.9062
5.425	0.446875	-222.2812
5.4275	0.1625	-173.875
5.43	-0.0171875	-212.3438
5.4325	-0.36875	-258.6875
5.435	-0.909375	-204.8125
5.4375	-1.371875	-182.7812
5.44	-1.754688	-184.6875
5.4425	-1.95	-173.0938
5.445	-1.946875	-155.125
5.4475	-1.851562	-170.1562
5.45	-1.74375	-135.875
5.4525	-1.59375	-142.3125
5.455	-1.242188	-179.5312
5.4575	-0.946875	-151.6562
5.46	-0.8546875	-199.1562
5.4625	-1.104688	-186.4688
5.465	-1.740625	-114.5
5.4675	-2.7625	-136.9062
5.47	-4.120312	-168.3125
5.4725	-5.5625	-127.9688
5.475	-7.110938	-111.5312
5.4775	-8.46875	-114
5.48	-9.451562	-93.09375
5.4825	-10.07812	-129.8125
5.485	-10.26719	-158.0625
5.4875	-9.915625	-117.2812
5.49	-9.078125	-56.125
5.4925	-7.820312	-102.7812
5.495	-6.210938	-104.9062
5.4975	-4.26875	-95.84375
5.5	-2.020313	-89.8125
5.5025	0.1796875	-11.34375
5.505	2.40625	-61.84375
5.5075	4.970313	-100.9375
5.51	7.817188	-21.28125
5.5125	10.76719	-0.15625
5.515	13.69219	-40.71875
5.5175	16.1875	-32.5625
5.52	18.08438	25.21875
5.5225	19.48281	98.28125
5.525	20.23125	9.59375
5.5275	20.48125	-2.75
5.53	20.46563	65.125
5.5325	20.19063	-0.625
5.535	19.69688	21.15625
5.5375	18.95938	24.78125
5.54	17.96406	-4.96875
5.5425	16.80469	56.15625
5.545	15.45156	80.75
5.5475	13.79531	73.5
5.55	11.86563	-20.8125
5.5525	9.770313	-2.125
5.555	7.546875	69.6875
5.5575	5.309375	57.90625
5.56	3.15625	34.9375
5.5625	1.071875	20.34375
5.565	-0.934375	77.09375
5.5675	-2.729688	41.21875
5.57	-4.198437	18.75
5.5725	-5.332813	-24.6875
5.575	-6.1875	-58.71875
5.5775	-6.914062	-31.0625
5.58	-7.548438	-19.375
5.5825	-8.185937	4.8125
5.585	-8.859375	-31
5.5875	-9.420312	-38.96875
5.59	-9.804688	-55.28125
5.5925	-10.03906	-19.0625
5.595	-10.13438	-8.75
5.5975	-10.14531	-74.0625
5.6	-10.12344	-95.96875
5.6025	-10.06406	-62.9375
5.605	-9.9375	-66.46875
5.6075	-9.689063	-73.78125
5.61	-9.426563	15
5.6125	-9.270313	-52.15625
5.615	-9.23125	-98.78125
5.6175	-9.279687	-68.53125
5.62	-9.375	-86.03125
5.6225	-9.390625	-102.375
5.625	-9.407813	-100.0625
5.6275	-9.517188	-106.1562
5.63	-9.617188	-126.0625
5.6325	-9.739063	-97.0625
5.635	-9.975	-131.4688
5.6375	-10.4	-169.5312
5.64	-10.92188	-84.46875
5.6425	-11.36719	-58.5
5.645	-11.70469	-75.625
5.6475	-11.89062	-111.0625
5.65	-11.90781	-131.2812
5.6525	-11.86094	-69.53125
5.655	-11.80156	-85.8125
5.6575	-11.8	-128.0625
5.66	-11.79531	-171.3438
5.6625	-11.8125	-177.9688
5.665	-11.9125	-102.5312
5.6675	-12	-6.53125
5.67	-12.08438	-3.21875
5.6725	-12.26406	-114.9062
5.675	-12.42188	-145.875
5.6775	-12.49375	-150.1562
5.68	-12.61094	-157.4062
5.6825	-12.73594	-90.40625
5.685	-12.925	-64.15625
5.6875	-13.21563	-86.625
5.69	-13.59063	-110.25
5.6925	-13.90938	-128.875
5.695	-13.86875	-32.65625
5.6975	-13.55625	49.8125
5.7	-13.20312	-16.71875
5.7025	-12.78438	-61.65625
5.705	-12.24688	-35.53125
5.7075	-11.61563	-12.03125
5.71	-10.85938	-45.9375
5.7125	-10.01406	-20.9375
5.715	-9.19375	-10.1875
5.7175	-8.434375	-39.6875
5.72	-7.91875	-35.53125
5.7225	-7.7375	-26.0625
5.725	-7.7375	-39.09375
5.7275	-7.773438	-85.6875
5.73	-7.720313	-37.875
5.7325	-7.63125	-122.6562
5.735	-7.535938	-125.6562
5.7375	-7.35625	-93.5625
5.74	-7.1375	-175.25
5.7425	-6.9	-170.4688
5.745	-6.598438	-207.6875
5.7475	-6.307813	-202.875
5.75	-6.010938	-150.6875
5.7525	-5.701563	-144.4375
5.755	-5.523438	-148.625
5.7575	-5.45625	-166.7188
5.76	-5.5625	-204.9375
5.7625	-5.81875	-143.125
5.765	-6.029688	-51.84375
5.7675	-6.048438	-107.5312
5.77	-5.775	-148.7812
5.7725	-5.276563	-186.1562
5.775	-4.651562	-179.9375
5.7775	-3.954688	-116.8438
5.78	-3.18125	-146.2188
5.7825	-2.320312	-203.4688
5.785	-1.50625	-262.8438
5.7875	-0.7921875	-198.0625
5.79	-0.1859375	-166.0625
5.7925	0.228125	-195.3125
5.795	0.478125	5.3125
5.7975	0.60625	195.4062
5.8	0.565625	251.625
5.8025	0.3484375	540.8438
5.805	-0.059375	738.6875
5.8075	-0.55625	668.25
5.81	-1.048438	823.6875
5.8125	-1.423438	897.125
5.815	-1.576563	848.0312
5.8175	-1.570312	753.1562
5.82	-1.323438	605.0312
5.8225	-0.9046875	492.4375
5.825	-0.4703125	348.4062
5.8275	-0.0234375	93.59375
5.83	0.428125	-95.90625
5.8325	0.8515625	-89.15625
5.835	1.085938	-208.6875
5.8375	1.053125	-242.1875
5.84	0.7859375	-158.625
5.8425	0.428125	-179.125
5.845	0.1609375	-184.7812
5.8475	-0.0328125	-198.3438
5.85	-0.2203125	-195.5938
5.8525	-0.384375	-210.875
5.855	-0.4359375	-268.8438
5.8575	-0.346875	-268.3125
5.86	-0.2109375	-240.9062
5.8625	-0.0828125	-227.8125
5.865	-0.0109375	-218.8438
5.8675	-0.1203125	-262.7812
5.87	-0.4046875	-245.7812
5.8725	-0.7796875	-206.0625
5.875	-1.2125	-213.125
5.8775	-1.617188	-224
5.88	-1.892188	-243.625
5.8825	-2.059375	-256.5312
5.885	-2.151563	-244.7812
5.8875	-2.153125	-232.9375
5.89	-2.089063	-196.5
5.8925	-2.078125	-201.4688
5.895	-2.15	-251.875
5.8975	-2.242188	-287.0938
5.9	-2.375	-248.2188
5.9025	-2.5375	-178.1875
5.905	-2.845313	-191.3438
5.9075	-3.448438	-144.875
5.91	-4.264063	-140.125
5.9125	-5.223438	-147.5312
5.915	-6.275	-105.75
5.9175	-7.165625	-110.5625
5.92	-7.873438	-106.3125
5.9225	-8.459375	-96.53125
5.925	-8.717187	-142.375
5.9275	-8.570312	-148.5938
5.93	-8.001563	-91.25
5.9325	-6.998438	-71.40625
5.935	-5.65625	-147.5625
5.9375	-4.140625	-122.6875
5.94	-2.621875	-56.875
5.9425	-1.125	-57.65625
5.945	0.478125	-73.25
5.9475	2.275	-61.5
5.95	4.321875	-74.15625
5.9525	6.575	-59.375
5.955	8.964063	-17.46875
5.9575	11.45	-58.3125
5.96	13.89531	-53.25
5.9625	16.12969	-30.46875
5.965	18.08438	-39.15625
5.9675	19.78594	20.0625
5.97	21.12813	31.9375
5.9725	22.06094	-22.34375
5.975	22.6625	-25.1875
5.9775	22.89375	-1.96875
5.98	22.72656	63.4375
5.9825	22.13438	27.40625
5.985	21.02188	-12.15625
5.9875	19.40156	-0.40625
5.99	17.44063	47.21875
5.9925	15.44375	43.34375
5.995	13.67188	-8.6875
5.9975	12.0125	49.65625
6	10.22031	48.0625
6.0025	8.410938	-5.90625
6.005	6.829688	-63.78125
6.0075	5.515625	-46.75
6.01	4.365625	85.59375
6.0125	3.34375	139.375
6.015	2.40625	43.78125
6.0175	1.471875	-38.8125
6.02	0.6265625	-30.25
6.0225	-0.15625	-36.25
6.025	-0.9296875	-35.71875
6.0275	-1.628125	-73.59375
6.03	-2.25	-60.59375
6.0325	-2.75	-32.1875
6.035	-3.175	-60.3125
6.0375	-3.603125	-80.53125
6.04	-3.973438	-117.0938
6.0425	-4.295313	-59.65625
6.045	-4.5875	-34.59375
6.0475	-4.728125	-107.4375
6.05	-4.704688	-23.71875
6.0525	-4.859375	-0.40625
6.055	-5.375	-70.90625
6.0575	-5.875	-93.875
6.06	-6.234375	-150.1562
6.0625	-6.65625	-79.46875
6.065	-7.214063	15.1875
6.0675	-7.798438	-40
6.07	-8.09375	-94.71875
6.0725	-8.128125	-108.25
6.075	-8.198438	-43.40625
6.0775	-8.390625	3.9375
6.08	-8.639062	-51.40625
6.0825	-8.895313	-77.09375
6.085	-9.135938	-90.34375
6.0875	-9.370313	-103.1562
6.09	-9.701563	-138.625
6.0925	-10.21094	-87.5625
6.095	-10.90938	-46.84375
6.0975	-11.81406	-58.875
6.1	-12.8875	-96.90625
6.1025	-13.93125	-122.6875
6.105	-14.80625	-89.1875
6.1075	-15.44844	-109.9688
6.11	-15.82188	-75.4375
6.1125	-15.97969	-108.8438
6.115	-15.97813	-176.7812
6.1175	-15.82812	-55.5
6.12	-15.56875	-12.6875
6.1225	-15.25469	-130.5
6.125	-14.89844	-155.5
6.1275	-14.53438	-158.6875
6.13	-14.24219	-166.0625
6.1325	-14.00313	-120.9062
6.135	-13.8	-121.3125
6.1375	-13.63594	-60.84375
6.14	-13.36875	65.9375
6.1425	-13	14.40625
6.145	-12.64844	-5.09375
6.1475	-12.38125	10.53125
6.15	-12.19219	-64.4375
6.1525	-12	-52.34375
6.155	-11.73281	-93.90625
6.1575	-11.3125	-35.5625
6.16	-10.69063	35.125
6.1625	-9.9125	-63.25
6.165	-9.05	-67.8125
6.1675	-8.189063	-48.125
6.17	-7.442188	-55.65625
6.1725	-6.834375	-63.9375
6.175	-6.342188	-60.5
6.1775	-5.889063	-140.4062
6.18	-5.460938	-164.7188
6.1825	-5.107813	-81.25
6.185	-4.820312	-94.4375
6.1875	-4.534375	-163.1875
6.19	-4.185938	-166.2812
6.1925	-3.7375	-126.9688
6.195	-3.189063	-140.3438
6.1975	-2.71875	-179.9688
6.2	-2.3875	-199.25
6.2025	-2.060938	-94.25
6.205	-1.654688	-92.25
6.2075	-1.165625	-103.0312
6.21	-0.659375	-122.7188
6.2125	-0.21875	-221.5625
6.215	0.1296875	-149.9062
6.2175	0.4453125	-133.0938
6.22	0.76875	-138.625
6.2225	1.132812	-206.2188
6.225	1.564063	-244.2812
6.2275	1.959375	-228.6875
6.23	2.203125	-218.1875
6.2325	2.289062	-166.3125
6.235	2.235937	-89.84375
6.2375	2.092188	132.5938
6.24	1.857813	190.0938
6.2425	1.5875	303.5625
6.245	1.290625	599.375
6.2475	0.8921875	696.4062
6.25	0.434375	725.7812
6.2525	-0.0640625	799.25
6.255	-0.659375	751.875
6.2575	-1.4125	651.9688
6.26	-2.282812	548.5
6.2625	-3.2	385.9062
6.265	-4.11875	295.75
6.2675	-4.951563	105.1875
6.27	-5.578125	-63.625
6.2725	-5.964063	-153.5312
6.275	-6.184375	-170.7188
6.2775	-6.279688	-73.15625
6.28	-6.25625	-169.1562
6.2825	-6.13125	-258.1875
6.285	-5.984375	-269.5625
6.2875	-5.904688	-240.9375
6.29	-5.973438	-206.25
6.2925	-6.221875	-241.7812
6.295	-6.560938	-228.0625
6.2975	-6.90625	-217.3125
6.3	-7.215625	-264.125
6.3025	-7.503125	-312.9375
6.305	-7.748438	-254.625
6.3075	-7.809375	-183.3125
6.31	-7.623438	-154
6.3125	-7.214063	-171.5
6.315	-6.626563	-316.5625
6.3175	-5.879688	-358.1875
6.32	-5.029688	-305.4062
6.3225	-4.2	-191.5
6.325	-3.473438	-162.9062
6.3275	-2.88125	-199.625
6.33	-2.38125	-188.5625
6.3325	-1.932813	-208.1562
6.335	-1.58125	-155.0625
6.3375	-1.385938	-241.25
6.34	-1.329688	-274.3438
6.3425	-1.38125	-226.4375
6.345	-1.501563	-207.25
6.3475	-1.645313	-102.2188
6.35	-1.801563	-186.4688
6.3525	-1.8375	-224.75
6.355	-1.751563	-201.6875
6.3575	-1.601562	-187.4375
6.36	-1.40625	-161.75
6.3625	-1.246875	-166.7188
6.365	-1.040625	-153.5938
6.3675	-0.7390625	-206.2188
6.37	-0.34375	-148.0938
6.3725	0.1578125	-181.5938
6.375	0.725	-204.3438
6.3775	1.404688	-64.25
6.38	2.195312	-178.4062
6.3825	3.035938	-197.0312
6.385	4.01875	-101.8438
6.3875	5.225	-106.8438
6.39	6.71875	-111.5625
6.3925	8.66875	-112.0625
6.395	11.07969	-82.90625
6.3975	13.79844	-106.3125
6.4	16.69063	-66.25
6.4025	19.39531	-53
6.405	21.65625	-114.3125
6.4075	23.45625	-86.6875
6.41	24.64375	-47.90625
6.4125	25.29219	-100.8125
6.415	25.61406	-101.0625
6.4175	25.55781	-67.5625
6.42	25.15938	-78.34375
6.4225	24.49688	-22.84375
6.425	23.53125	-3.03125
6.4275	22.28125	-16.59375
6.43	20.80938	-14.53125
6.4325	19.23438	-50.875
6.435	17.65469	-57.40625
6.4375	15.99688	-63.09375
6.44	14.17188	-68.3125
6.4425	12.16563	-80.59375
6.445	10.00156	-115.375
6.4475	7.785938	-94.78125
6.45	5.582813	-32.5625
6.4525	3.41875	-68.96875
6.455	1.373438	-126.25
6.4575	-0.534375	-119.2188
6.46	-2.33125	-122.875
6.4625	-3.957813	-92.4375
6.465	-5.359375	-127.75
6.4675	-6.4875	-177.6875
6.47	-7.395313	-122.1875
6.4725	-8.196875	-67.96875
6.475	-8.890625	-164.875
6.4775	-9.501563	-148.3438
6.48	-10.08438	-129.8125
6.4825	-10.6125	-190.125
6.485	-11.04375	-136.3125
6.4875	-11.40313	-132.9062
6.49	-11.71719	-115.2188
6.4925	-12.0375	-83.21875
6.495	-12.40469	-118.3125
6.4975	-12.74063	-143.375
6.5	-13	-215.7812
6.5025	-13.13906	-239.0625
6.505	-13.13281	-125.3125
6.5075	-13.14688	-145.4375
6.51	-13.25156	-149.9375
6.5125	-13.3625	-126
6.515	-13.41875	-232.5938
6.5175	-13.34375	-226.0938
6.52	-13.0875	-155.75
6.5225	-12.62813	-231.0938
6.525	-12.02031	-200.375
6.5275	-11.35469	-92.6875
6.53	-10.59375	-177.4062
6.5325	-9.782813	-241
6.535	-8.907813	-159.9688
6.5375	-7.95	-89.3125
6.54	-7.075	-108.9375
6.5425	-6.389063	-231.625
6.545	-5.890625	-203.6562
6.5475	-5.5625	-125
6.55	-5.35	-149.25
6.5525	-5.201563	-142.8125
6.555	-5.065625	-162.375
6.5575	-5.026563	-162.0312
6.56	-5.142188	-223.5625
6.5625	-5.282813	-219.7812
6.565	-5.390625	-203.2188
6.5675	-5.460938	-181.2812
6.57	-5.385938	-169.4688
6.5725	-5.134375	-141.6875
6.575	-4.757812	-119.5938
6.5775	-4.321875	-134.1875
6.58	-3.9	-93.875
6.5825	-3.560938	-111.3438
6.585	-3.3875	-134.6875
6.5875	-3.328125	-171.3125
6.59	-3.298438	-204.625
6.5925	-3.28125	-161.875
6.595	-3.259375	-123.1875
6.5975	-3.217188	-136.375
6.6	-3.160938	-134.7812
6.6025	-3.151563	-133.5938
6.605	-3.201563	-140.4062
6.6075	-3.284375	-125.6562
6.61	-3.365625	-151.0938
6.6125	-3.465625	-213.875
6.615	-3.6375	-211.375
6.6175	-3.875	-193.7188
6.62	-4.160938	-129
6.6225	-4.464062	-186.5
6.625	-4.839063	-238.5625
6.6275	-5.267188	-221.1875
6.63	-5.696875	-267.7188
6.6325	-6.135938	-236.6875
6.635	-6.598438	-195.625
6.6375	-7.0875	-191.625
6.64	-7.546875	-231.2812
6.6425	-7.895313	-227.9375
6.645	-8.132812	-211.9062
6.6475	-8.303125	-237.0938
6.65	-8.417188	-294.0312
6.6525	-8.54375	-284.375
6.655	-8.723438	-282.1875
6.6575	-8.91875	-257.1875
6.66	-9.123437	-268.5312
6.6625	-9.278125	-293.8125
6.665	-9.351562	-338.25
6.6675	-9.38125	-297.4062
6.67	-9.328125	-195.0312
6.6725	-9.165625	-219.7188
6.675	-8.929688	-35.1875
6.6775	-8.63125	122.6875
6.68	-8.271875	250
6.6825	-7.915625	473.0312
6.685	-7.5625	597.875
6.6875	-7.195312	506.8125
6.69	-6.817188	404.5938
6.6925	-6.404688	520.1875
6.695	-6.007812	473.5312
6.6975	-5.651563	282.9062
6.7	-5.375	131.7188
6.7025	-5.321875	1.5625
6.705	-5.442188	-85.78125
6.7075	-5.532813	-135.75
6.71	-5.595313	-185.0312
6.7125	-5.74375	-234.9688
6.715	-5.965625	-245.6875
6.7175	-6.15625	-317.5
6.72	-6.184375	-296.0312
6.7225	-6.014063	-259.7812
6.725	-5.757812	-303.4062
6.7275	-5.485938	-277.0312
6.73	-5.221875	-284.0312
6.7325	-4.9625	-298.1562
6.735	-4.709375	-308.0312
6.7375	-4.517188	-290.0312
6.74	-4.428125	-262.5625
6.7425	-4.482813	-326
6.745	-4.46875	-338.0312
6.7475	-4.273438	-354.6562
6.75	-4.042187	-276.9688
6.7525	-3.759375	-196.0312
6.755	-3.44375	-274.5
6.7575	-3.15	-239.4688
6.76	-2.803125	-219.2812
6.7625	-2.440625	-271.9375
6.765	-2.148438	-275.8125
6.7675	-2.035938	-240.5
6.77	-2.239063	-274.4062
6.7725	-2.653125	-343.0938
6.775	-3.092188	-187.9688
6.7775	-3.41875	-152.6875
6.78	-3.682813	-295.5312
6.7825	-3.96875	-210.2812
6.785	-4.307812	-109.8125
6.7875	-4.695312	-217.9375
6.79	-5.051563	-160.7188
6.7925	-5.434375	-103.0625
6.795	-5.860938	-245.0312
6.7975	-6.254688	-233.5312
6.8	-6.610938	-227.3125
6.8025	-6.973438	-213.3438
6.805	-7.34375	-127.2812
6.8075	-7.65625	-188.125
6.81	-7.8375	-248.9375
6.8125	-7.735938	-179.0625
6.815	-7.26875	-127.2812
6.8175	-6.504688	-142.3125
6.82	-5.307813	-122.9062
6.8225	-3.576563	-113.4062
6.825	-1.385938	-109.5312
6.8275	1.276563	-68.03125
6.83	4.39375	-93.25
6.8325	7.915625	-128.2812
6.835	11.72344	-97.25
6.8375	15.37188	-99.375
6.84	18.56406	-96.8125
6.8425	21.21719	-96.1875
6.845	23.1125	-82.59375
6.8475	24.32656	-89.71875
6.85	25.05	-102
6.8525	25.35781	24.34375
6.855	25.29219	-44.375
6.8575	24.85156	-144.6562
6.86	24.19375	-99.15625
6.8625	23.39219	-166.0938
6.865	22.325	-142.3125
6.8675	21.04688	-42.25
6.87	19.59063	-32.15625
6.8725	17.86719	-38.53125
6.875	15.88281	-53.15625
6.8775	13.72031	15.53125
6.88	11.44531	17.28125
6.8825	9.13125	-99.25
6.885	6.889063	-74.25
6.8875	4.834375	-54.40625
6.89	3.045313	-72.4375
6.8925	1.503125	-91.375
6.895	0.1984375	-118.3438
6.8975	-0.921875	-104.0312
6.9	-1.98125	-130.4688
6.9025	-2.984375	-79.125
6.905	-3.873438	-133.3125
6.9075	-4.670313	-196.1562
6.91	-5.407813	-122.875
6.9125	-6.079688	-121.1562
6.915	-6.729688	-117.4375
6.9175	-7.314063	-171.875
6.92	-7.740625	-201.1875
6.9225	-8.001563	-210.25
6.925	-8.014062	-191.0938
6.9275	-7.854688	-201.0625
6.93	-7.63125	-196.5625
6.9325	-7.36875	-45.8125
6.935	-7.121875	-61.3125
6.9375	-6.8625	-157.3125
6.94	-6.617188	-138.5
6.9425	-6.464063	-145.0625
6.945	-6.426563	-179.3125
6.9475	-6.45	-133.6875
6.95	-6.465625	-192.125
6.9525	-6.476562	-202.0625
6.955	-6.526563	-127.5
6.9575	-6.6125	-126.1562
6.96	-6.70625	-116.5625
6.9625	-6.846875	-156.7188
6.965	-7.070312	-111.125
6.9675	-7.34375	-36.90625
6.97	-7.61875	-86.0625
6.9725	-7.865625	-129.1875
6.975	-8.01875	-107.3438
6.9775	-8.0875	-99.875
6.98	-8.148438	-85.15625
6.9825	-8.148438	-88.96875
6.985	-8.107812	-51.59375
6.9875	-8.096875	-63.84375
6.99	-8.19375	-89.8125
6.9925	-8.35	-93.0625
6.995	-8.476562	-85.1875
6.9975	-8.64375	-110.4375
7	-8.845313	-227.75
7.0025	-9.020313	-167.9062
7.005	-9.160938	-148.9688
7.0075	-9.320312	-153.2812
7.01	-9.503125	-99.1875
7.0125	-9.789062	-75.03125
7.015	-10.25625	-14.59375
7.0175	-10.7875	-23.5
7.02	-11.29688	-83.53125
7.0225	-11.74688	-112.3438
7.025	-12.05781	-44.375
7.0275	-12.21563	-122.125
7.03	-12.26562	-168.2812
7.0325	-12.21406	-47.6875
7.035	-12.025	-96.0625
7.0375	-11.69688	-17.15625
7.04	-11.27813	-21.8125
7.0425	-10.79219	-136.5
7.045	-10.29375	-180.5938
7.0475	-9.8375	-215.6562
7.05	-9.39375	-161.625
7.0525	-8.959375	-150.8125
7.055	-8.642188	-157.875
7.0575	-8.465625	-210.25
7.06	-8.328125	-206.0625
7.0625	-8.18125	-28.625
7.065	-7.95	-41.84375
7.0675	-7.540625	-174.4062
7.07	-6.984375	-166.9375
7.0725	-6.351562	-170.9688
7.075	-5.671875	-96.5625
7.0775	-5	-151.4375
7.08	-4.403125	-196.9375
7.0825	-3.804688	3.03125
7.085	-3.145313	-28.65625
7.0875	-2.534375	-239.8125
7.09	-2.042188	-208.4375
7.0925	-1.665625	-101.0625
7.095	-1.410938	-108.0625
7.0975	-1.267188	-84.59375
7.1	-1.165625	-169.8438
7.1025	-1.03125	-283.5938
7.105	-0.7984375	-98.84375
7.1075	-0.5359375	182.6875
7.11	-0.3453125	290.25
7.1125	-0.15625	377.4062
7.115	0.1328125	414.0312
7.1175	0.5703125	443.4688
7.12	1.121875	515.4062
7.1225	1.7	476.3125
7.125	2.23125	375.5312
7.1275	2.678125	294.9062
7.13	3.064063	305.0938
7.1325	3.425	212.375
7.135	3.784375	119.5625
7.1375	4.090625	-3.90625
7.14	4.2625	-59.0625
7.1425	4.301563	-26.96875
7.145	4.248438	-63.5625
7.1475	4.128125	-116.9688
7.15	3.984375	-156.7188
7.1525	3.84375	-79.65625
7.155	3.684375	-91.6875
7.1575	3.396875	-160.0625
7.16	2.896875	-189.0312
7.1625	2.1625	-201.5625
7.165	1.26875	-129.9375
7.1675	0.3890625	-98.21875
7.17	-0.39375	-230.5938
7.1725	-0.9859375	-281.5
7.175	-1.340625	-186.7812
7.1775	-1.539062	-100.9688
7.18	-1.598438	-110.9375
7.1825	-1.634375	-139.875
7.185	-1.753125	-83.03125
7.1875	-1.898438	-93.15625
7.19	-2.065625	-165.7188
7.1925	-2.309375	-117.7812
7.195	-2.590625	-31.90625
7.1975	-2.960938	-33.03125
7.2	-3.526563	-139.4062
7.2025	-4.221875	-137.8438
7.205	-4.90625	-102.875
7.2075	-5.428125	-192.1875
7.21	-5.723438	-179.1875
7.2125	-5.828125	-85.09375
7.215	-5.854688	-29.78125
7.2175	-5.904688	-45.3125
7.22	-5.9375	-67.40625
7.2225	-5.945312	-111.8125
7.225	-5.954688	-119.625
7.2275	-5.890625	-83.78125
7.23	-5.78125	-91.125
7.2325	-5.745313	-36.3125
7.235	-5.69375	6.21875
7.2375	-5.50625	2
7.24	-5.184375	-40.71875
7.2425	-4.69375	-47.125
7.245	-4.034375	-64.90625
7.2475	-3.217188	-82.125
7.25	-2.226562	-0.21875
7.2525	-1.025	39.6875
7.255	0.5328125	-51.84375
7.2575	2.56875	-31.6875
7.26	5.157813	61
7.2625	8.184375	-22.65625
7.265	11.3125	11.4375
7.2675	14.34688	92.34375
7.27	17.25313	79.3125
7.2725	19.90781	-6.65625
7.275	22.14531	-29.28125
7.2775	24.02969	59.375
7.28	25.70625	55.15625
7.2825	27.2375	108.5312
7.285	28.60781	76.03125
7.2875	29.68125	91.78125
7.29	30.23438	45.8125
7.2925	30.1625	-138.6562
7.295	29.50625	-48.78125
7.2975	28.31563	143.4062
7.3	26.78281	115.375
7.3025	25.14219	-9.03125
7.305	23.37031	80.125
7.3075	21.36406	123.625
7.31	19.17813	152.625
7.3125	16.95156	150.9062
7.315	14.62188	44.78125
7.3175	12.15781	-2.78125
7.32	9.640625	43.125
7.3225	7.004688	-15.3125
7.325	4.340625	-17.125
7.3275	1.80625	66.25
7.33	-0.56875	-59.3125
7.3325	-2.634375	-46.96875
7.335	-4.2375	-13.125
7.3375	-5.465625	-14.78125
7.34	-6.453125	-47.3125
7.3425	-7.28125	-34.46875
7.345	-8.003125	71.34375
7.3475	-8.66875	-22.65625
7.35	-9.285938	-33.15625
7.3525	-9.935938	-11.40625
7.355	-10.70156	-72.875
7.3575	-11.51875	-16.875
7.36	-12.28594	-6.625
7.3625	-12.97969	-84.875
7.365	-13.64531	-104.25
7.3675	-14.26875	-155.1875
7.37	-14.76406	-125.125
7.3725	-15.13906	71.875
7.375	-15.39062	-17.53125
7.3775	-15.49688	-52.4375
7.38	-15.51562	86.71875
7.3825	-15.47813	22.9375
7.385	-15.4	-185.375
7.3875	-15.28594	-193.9688
7.39	-15.11563	11.53125
7.3925	-14.94531	-2.09375
7.395	-14.85469	-34.34375
7.3975	-14.86563	42.40625
7.4	-14.94844	69.21875
7.4025	-15.10938	43.6875
7.405	-15.3625	-13.40625
7.4075	-15.76562	-129.8438
7.41	-16.325	-111.0625
7.4125	-16.89375	45.125
7.415	-17.29688	74.71875
7.4175	-17.50625	-78.78125
7.42	-17.62344	-65.21875
7.4225	-17.63594	79.03125
7.425	-17.55781	3.6875
7.4275	-17.43125	15.0625
7.43	-17.17969	32.09375
7.4325	-16.82812	40.59375
7.435	-16.37969	97.03125
7.4375	-15.78281	51.65625
7.44	-15.07031	-6.65625
7.4425	-14.35938	-70.125
7.445	-13.73594	-49.84375
7.4475	-13.26406	-9.53125
7.45	-13.02031	59.875
7.4525	-12.95312	121.7812
7.455	-12.93281	-21.71875
7.4575	-12.87813	-29.1875
7.46	-12.73281	99.5625
7.4625	-12.45781	88.25
7.465	-12.07656	-8.46875
7.4675	-11.63594	-58.40625
7.47	-11.19375	-70.78125
7.4725	-10.77188	-90.09375
7.475	-10.39531	-84.4375
7.4775	-10.09063	-21.90625
7.48	-9.83125	-11.53125
7.4825	-9.665625	-75.4375
7.485	-9.548438	-74.375
7.4875	-9.373437	-14.1875
7.49	-9.15625	-32.59375
7.4925	-8.873437	-20.625
7.495	-8.482812	-58.71875
7.4975	-7.990625	-131.9062
7.5	-7.4	-41.6875
7.5025	-6.751563	-48.15625
7.505	-6.114063	-42.21875
7.5075	-5.626563	-21.3125
7.51	-5.273438	-10.53125
7.5125	-4.960938	-19.71875
7.515	-4.728125	-146.375
7.5175	-4.46875	-204.0938
7.52	-4.115625	-114.1562
7.5225	-3.660938	-125.4375
7.525	-3.145313	-195.7812
7.5275	-2.621875	-140.4375
7.53	-2.139063	-173.0625
7.5325	-1.759375	24.5
7.535	-1.421875	199.625
7.5375	-1.104688	240.875
7.54	-0.996875	471.9688
7.5425	-1.028125	547.1875
7.545	-1.198438	562.4062
7.5475	-1.392188	500.3438
7.55	-0.9453125	452
7.5525	-0.0046875	423.9688
7.555	0.7828125	317.0625
7.5575	1.207813	419.9062
7.56	1.45	350.6562
7.5625	1.576563	138.9062
7.565	1.501563	72.3125
7.5675	1.25625	-18.9375
7.57	0.8578125	-92.65625
7.5725	0.3125	-52.1875
7.575	-0.3734375	-27.5625
7.5775	-1.126563	-141.9688
7.58	-1.864063	-179.9688
7.5825	-2.345312	-62.40625
7.585	-2.434375	-21.1875
7.5875	-2.276563	39.375
7.59	-1.953125	-22.75
7.5925	-1.609375	-140.4375
7.595	-1.395313	-111.0938
7.5975	-1.398438	-111.875
7.6	-1.548438	-129.4062
7.6025	-1.703125	-92.03125
7.605	-1.909375	-121.625
7.6075	-2.19375	-117.125
7.61	-2.579688	-86.28125
7.6125	-3.06875	-132.7812
7.615	-3.592188	-4.90625
7.6175	-3.984375	-2.40625
7.62	-4.203125	-76.09375
7.6225	-4.320312	-105.1875
7.625	-4.314063	-83.46875
7.6275	-4.276562	-32.03125
7.63	-4.298438	-44.375
7.6325	-4.378125	-73.34375
7.635	-4.490625	-90.125
7.6375	-4.54375	-24.75
7.64	-4.50625	-62.78125
7.6425	-4.403125	-131.3438
7.645	-4.221875	51.625
7.6475	-3.967188	25.03125
7.65	-3.69375	-50.09375
7.6525	-3.415625	2.71875
7.655	-3.090625	45.65625
7.6575	-2.734375	68.15625
7.66	-2.296875	-38.75
7.6625	-1.682813	-50.71875
7.665	-0.95625	-2.09375
7.6675	-0.1203125	-20.9375
7.67	0.7890625	-87.40625
7.6725	1.745313	-91.8125
7.675	2.896875	-54.4375
7.6775	4.340625	-10.40625
7.68	6.23125	-62.8125
7.6825	8.639062	-76.6875
7.685	11.50469	16.1875
7.6875	14.72813	42.59375
7.69	18.03594	19.875
7.6925	21.19531	81.625
7.695	24.07969	-0.09375
7.6975	26.66563	14.125
7.7	28.99219	132.75
7.7025	30.96406	20.875
7.705	32.40781	-31.375
7.7075	33.2625	128.1875
7.71	33.60156	157.5938
7.7125	33.49688	86.625
7.715	33.0125	133.8125
7.7175	32.20625	84.03125
7.72	31.13438	85.59375
7.7225	29.79219	132.4375
7.725	28.14062	85.34375
7.7275	26.22969	107.8125
7.73	24.14219	63.90625
7.7325	22.01094	81.8125
7.735	19.90625	136.9062
7.7375	17.77969	92.40625
7.74	15.5125	66.71875
7.7425	13.06719	29.8125
7.745	10.5625	37.46875
7.7475	8.020313	43.0625
7.75	5.448438	45.625
7.7525	2.929688	32.25
7.755	0.54375	59.8125
7.7575	-1.695312	77.875
7.76	-3.73125	-66.28125
7.7625	-5.45625	-80.4375
7.765	-6.857813	-37.21875
7.7675	-7.921875	81.15625
7.77	-8.659375	96.65625
7.7725	-9.104688	-11.8125
7.775	-9.34375	-34.28125
7.7775	-9.60625	-43
7.78	-10.02031	-11.125
7.7825	-10.51875	72.4375
7.785	-11.0875	104.4688
7.7875	-11.71094	58.125
7.79	-12.27813	3.5625
7.7925	-12.69688	-90.71875
7.795	-12.98281	-67.90625
7.7975	-13.18906	-76.21875
7.8	-13.32344	3.5625
7.8025	-13.3875	108.375
7.805	-13.35469	55.9375
7.8075	-13.20312	-52.09375
7.81	-12.98281	-59.09375
7.8125	-12.80938	-23.0625
7.815	-12.73281	-21.78125
7.8175	-12.75625	-11.0625
7.82	-12.91875	-57.9375
7.8225	-13.21563	4.6875
7.825	-13.62969	7.90625
7.8275	-14.17031	-12.78125
7.83	-14.81563	0.875
7.8325	-15.49375	6.34375
7.835	-16.07812	23.46875
7.8375	-16.51094	-12
7.84	-16.85156	63.65625
7.8425	-17.14062	10.25
7.845	-17.35469	-58.03125
7.8475	-17.51562	20.34375
7.85	-17.69219	38.25
7.8525	-17.87656	3.8125
7.855	-18.05469	-49.5
7.8575	-18.2625	79.71875
7.86	-18.45938	58.75
7.8625	-18.58438	32.34375
7.865	-18.47656	90.1875
7.8675	-17.97813	71.875
7.87	-17.22813	85.90625
7.8725	-16.35938	-18.875
7.875	-15.42813	-4.71875
7.8775	-14.48281	39.1875
7.88	-13.57656	46.75
7.8825	-12.7125	174.8438
7.885	-11.86875	79.1875
7.8875	-11.09531	7.5625
7.89	-10.39531	35.9375
7.8925	-9.803125	-65.65625
7.895	-9.31875	44.84375
7.8975	-8.890625	127.875
7.9	-8.473438	59.875
7.9025	-7.992188	31.5625
7.905	-7.464063	0.65625
7.9075	-6.928125	-0.53125
7.91	-6.371875	-16.34375
7.9125	-5.853125	-7.34375
7.915	-5.404688	-59.09375
7.9175	-4.93125	-74.5
7.92	-4.367188	-95.21875
7.9225	-3.7	-129.9062
7.925	-2.932813	-31.0625
7.9275	-2.167188	-35.21875
7.93	-1.445312	-28.75
7.9325	-0.7921875	5.03125
7.935	-0.271875	13.21875
7.9375	0.109375	-52.03125
7.94	0.3453125	-102.375
7.9425	0.4296875	-49.25
7.945	0.2796875	12.03125
7.9475	-0.090625	-3.5625
7.95	-0.4140625	-57.6875
7.9525	-0.5046875	-146.2812
7.955	-0.1859375	-168.25
7.9575	0.5953125	-60.46875
7.96	1.5625	-11.9375
7.9625	2.528125	-8.25
7.965	3.354688	70.53125
7.9675	3.9375	210.0938
7.97	4.389063	344.9688
7.9725	4.771875	504.7812
7.975	4.995313	593.6562
7.9775	5.115625	656.1875
7.98	5.132812	586.875
7.9825	4.95	443.3438
7.985	4.51875	478.25
7.9875	3.814063	405.3438
7.99	2.892188	321.1562
7.9925	1.8875	229.2812
7.995	0.9671875	51.21875
7.9975	0.1921875	-40.34375
8	-0.4375	-26.78125
8.0025	-0.9265625	-43.03125
8.005	-1.354688	-100.5
8.0075	-1.751563	-10.03125
8.01	-2.095312	9.84375
8.0125	-2.376562	-14.25
8.015	-2.559375	-136.5625
8.0175	-2.704688	-178.0312
8.02	-2.954688	-44
8.0225	-3.295313	-138.875
8.025	-3.678125	-124.4375
8.0275	-4.128125	-54.75
8.03	-4.5625	-41.59375
8.0325	-4.965625	56.90625
8.035	-5.354688	12.59375
8.0375	-5.695312	-43.625
8.04	-5.996875	-44.90625
8.0425	-6.264063	-110.3438
8.045	-6.528125	-125.2188
8.0475	-6.767188	-148.3438
8.05	-6.889063	-62.28125
8.0525	-6.892188	45
8.055	-6.867188	-20.96875
8.0575	-6.839063	-46.5625
8.06	-6.726562	-46.78125
8.0625	-6.5	-71.71875
8.065	-6.160938	-92.96875
8.0675	-5.807813	-25.9375
8.07	-5.5625	40.5625
8.0725	-5.451563	-81.65625
8.075	-5.492188	-70.90625
8.0775	-5.623438	-16.09375
8.08	-5.8625	-36.09375
8.0825	-6.134375	-41.75
8.085	-6.239063	-115.0625
8.0875	-6.207813	-40.875
8.09	-6.096875	-18.90625
8.0925	-5.848438	-56.90625
8.095	-5.479688	48.125
8.0975	-4.976562	75.375
8.1	-4.20625	-19.25
8.1025	-3.120313	40.1875
8.105	-1.721875	96.53125
8.1075	0.0890625	1.375
8.11	2.43125	-6.40625
8.1125	5.309375	-2
8.115	8.676563	4.65625
8.1175	12.39688	6.09375
8.12	16.09219	24.6875
8.1225	19.4875	-9.3125
8.125	22.52344	-30.28125
8.1275	25.12656	68
8.13	27.38594	84.90625
8.1325	29.35469	-1
8.135	31.01406	29.1875
8.1375	32.37188	132.8125
8.14	33.34688	87.125
8.1425	33.84844	101.5938
8.145	33.93125	138.75
8.1475	33.66562	108.7188
8.15	33.01406	125.375
8.1525	31.8875	87.8125
8.155	30.2375	111.5
8.1575	28.14062	170.5312
8.16	25.72656	105.4062
8.1625	23.14688	78.5
8.165	20.52969	160.2188
8.1675	17.93594	112.7812
8.17	15.37969	97.15625
8.1725	12.8375	104.8125
8.175	10.28281	62.875
8.1775	7.714063	75.0625
8.18	5.157813	74.40625
8.1825	2.696875	109.125
8.185	0.4125	139.4375
8.1875	-1.784375	119.7188
8.19	-3.870313	92.78125
8.1925	-5.74375	90.53125
8.195	-7.435938	55.5625
8.1975	-8.946875	56.96875
8.2	-10.20938	50
8.2025	-11.21094	53.21875
8.205	-12	43.96875
8.2075	-12.60625	45.59375
8.21	-13.12031	66.59375
8.2125	-13.50625	31.9375
8.215	-13.68438	24.34375
8.2175	-13.72188	22.9375
8.22	-13.74844	-13.96875
8.2225	-13.87813	63.5625
8.225	-14.10625	84.78125
8.2275	-14.38438	26.625
8.23	-14.6125	82.75
8.2325	-14.69375	69.21875
8.235	-14.64688	15.03125
8.2375	-14.48281	55.78125
8.24	-14.22031	78.78125
8.2425	-13.89688	-15.15625
8.245	-13.55938	-70.34375
8.2475	-13.25938	38.40625
8.25	-13.02344	26.1875
8.2525	-12.93594	-54.59375
8.255	-13.03594	41.40625
8.2575	-13.29219	43.90625
8.26	-13.68281	-9.40625
8.2625	-14.14531	68.40625
8.265	-14.66094	110.0312
8.2675	-15.18125	44.15625
8.27	-15.65	-2.53125
8.2725	-16.05625	-23.28125
8.275	-16.35313	-94.375
8.2775	-16.57344	57.8125
8.28	-16.75625	231.25
8.2825	-16.91094	53.96875
8.285	-16.97656	-1.8125
8.2875	-16.88125	71.875
8.29	-16.61563	26.34375
8.2925	-16.20156	48.125
8.295	-15.72969	82.125
8.2975	-15.28125	69.0625
8.3	-14.85625	80.46875
8.3025	-14.40781	71.375
8.305	-13.94844	9.4375
8.3075	-13.42813	19
8.31	-12.76875	23.90625
8.3125	-12.05625	1.5625
8.315	-11.30781	101.7812
8.3175	-10.48438	90.71875
8.32	-9.704688	48.59375
8.3225	-9.001563	87.40625
8.325	-8.384375	54.96875
8.3275	-7.90625	28.6875
8.33	-7.539062	37.78125
8.3325	-7.25625	62.96875
8.335	-7.040625	9.34375
8.3375	-6.88125	-23.3125
8.34	-6.721875	-31.5625
8.3425	-6.482813	-7.21875
8.345	-6.154688	71.90625
8.3475	-5.742188	-22.78125
8.35	-5.2625	-4.5
8.3525	-4.773438	35.09375
8.355	-4.307812	-7.375
8.3575	-3.910938	23.4375
8.36	-3.614063	52.34375
8.3625	-3.425	-15.5
8.365	-3.389063	-93.0625
8.3675	-3.410938	-20.78125
8.37	-3.373438	-28.625
8.3725	-3.30625	-17.15625
8.375	-3.228125	-48.84375
8.3775	-3.1625	-43.3125
8.38	-3.065625	13.5
8.3825	-3.003125	-35.9375
8.385	-2.96875	-53.9375
8.3875	-2.804688	7.53125
8.39	-2.626563	19.125
8.3925	-2.435938	-76.3125
8.395	-2.382812	-69.125
8.3975	-2.403125	-24.78125
8.4	-2.14375	-55.34375
8.4025	-1.985938	-0.1875
8.405	-1.853125	149.875
8.4075	-1.625	224.2188
8.41	-1.526563	383.8125
8.4125	-1.523438	626.4375
8.415	-1.564063	751.6562
8.4175	-1.579688	818.5938
8.42	-1.61875	816.4062
8.4225	-1.635938	655.75
8.425	-1.55	623.7188
8.4275	-1.353125	650.7812
8.43	-1.142188	446
8.4325	-0.9703125	265.375
8.435	-0.7203125	127.9688
8.4375	-0.4875	35.53125
8.44	-0.375	-30.03125
8.4425	-0.3953125	-84.3125
8.445	-0.596875	-76.21875
8.4475	-0.9296875	-113.1875
8.45	-1.309375	-122.6562
8.4525	-1.671875	-120.8125
8.455	-1.9875	-138.375
8.4575	-2.301563	-46.125
8.46	-2.5875	13.75
8.4625	-2.801563	-65.28125
8.465	-2.998438	-110.4062
8.4675	-3.203125	-127.7812
8.47	-3.460938	-162.9062
8.4725	-3.746875	-161.2812
8.475	-3.928125	-9.46875
8.4775	-4	4.875
8.48	-4.014063	-99.78125
8.4825	-4.01875	-89.4375
8.485	-4.045313	-36.78125
8.4875	-4.060938	-7.09375
8.49	-4.032813	-14.9375
8.4925	-3.939063	-1.96875
8.495	-3.823438	-76.90625
8.4975	-3.76875	-50.25
8.5	-3.742188	33.59375
8.5025	-3.753125	-66.25
8.505	-3.88125	-61
8.5075	-4.142188	-27.9375
8.51	-4.5375	-32.90625
8.5125	-5.078125	3.125
8.515	-5.646875	-17.5625
8.5175	-6.120313	-12
8.52	-6.601562	-40.8125
8.5225	-7.132812	-134.0625
8.525	-7.629688	-56.375
8.5275	-7.94375	17.53125
8.53	-7.946875	-71
8.5325	-7.58125	-37.90625
8.535	-6.823438	-46.46875
8.5375	-5.678125	29.78125
8.54	-4.235938	103.2812
8.5425	-2.623438	-22.6875
8.545	-0.7640625	-41.3125
8.5475	1.53125	4.59375
8.55	4.35	-6.21875
8.5525	7.610938	81.15625
8.555	11.16875	126.4688
8.5575	14.75625	-8.84375
8.56	18.14531	-8.125
8.5625	21.28281	121.1562
8.565	24.08281	122.5
8.5675	26.56406	124.3125
8.57	28.83281	121.75
8.5725	30.86094	108.125
8.575	32.5125	182.9062
8.5775	33.82344	145.25
8.58	34.87656	62.25
8.5825	35.575	89
8.585	35.84063	166.8438
8.5875	35.60781	94.84375
8.59	34.78906	65
8.5925	33.43594	143.375
8.595	31.62188	143.1562
8.5975	29.39531	173.3125
8.6	26.84531	234.9375
8.6025	24.02188	200
8.605	21.04688	158.625
8.6075	18.04844	125.3125
8.61	15.13281	101.0938
8.6125	12.40156	151.0938
8.615	9.85625	76.09375
8.6175	7.523438	9.78125
8.62	5.392188	49.71875
8.6225	3.414062	89.1875
8.625	1.614063	89.65625
8.6275	-0.0140625	136.75
8.63	-1.6	167.5
8.6325	-3.21875	77.25
8.635	-4.896875	3.1875
8.6375	-6.615625	85.8125
8.64	-8.351562	54.03125
8.6425	-10.0625	-106.875
8.645	-11.63438	-28.6875
8.6475	-13.08281	87.15625
8.65	-14.42969	62.59375
8.6525	-15.6125	8.21875
8.655	-16.54063	25.53125
8.6575	-17.13906	91.5625
8.66	-17.47031	61.28125
8.6625	-17.61094	29.25
8.665	-17.58594	60.28125
8.6675	-17.48594	30.28125
8.67	-17.40781	16.8125
8.6725	-17.37969	-51.28125
8.675	-17.37656	-115.25
8.6775	-17.41094	24.0625
8.68	-17.55937	56.28125
8.6825	-17.81875	-25.65625
8.685	-18.13125	-27.34375
8.6875	-18.37344	-47.28125
8.69	-18.45312	-45.71875
8.6925	-18.4	-25.46875
8.695	-18.21094	-65.03125
8.6975	-17.90469	-28.96875
8.7	-17.55781	38.15625
8.7025	-17.23594	29.53125
8.705	-16.93437	23.46875
8.7075	-16.65	7.65625
8.71	-16.38594	11.28125
8.7125	-16.14688	40.78125
8.715	-15.97969	2.25
8.7175	-15.84375	-90.25
8.72	-15.71875	-138.0312
8.7225	-15.58125	-40.9375
8.725	-15.42813	87.03125
8.7275	-15.29375	-24.65625
8.73	-15.18281	-96.21875
8.7325	-15.14531	51.59375
8.735	-15.20781	42.125
8.7375	-15.27813	-14.75
8.74	-15.20156	27.28125
8.7425	-14.95312	19.28125
8.745	-14.61719	-28.4375
8.7475	-14.25313	-32.8125
8.75	-13.86563	1.25
8.7525	-13.48594	-27.1875
8.755	-13.02813	-23.5
8.7575	-12.41406	26.1875
8.76	-11.72031	68.125
8.7625	-10.95938	31.5
8.765	-10.15625	44.875
8.7675	-9.398438	-0.5625
8.77	-8.70625	10.75
8.7725	-8.051563	74.375
8.775	-7.420313	-56.3125
8.7775	-6.734375	-77.46875
8.78	-5.98125	-2.78125
8.7825	-5.19375	50.09375
8.785	-4.423438	26.03125
8.7875	-3.790625	17.71875
8.79	-3.321875	10.8125
8.7925	-2.940625	-38.8125
8.795	-2.535938	-47
8.7975	-2.1375	-56.84375
8.8	-1.770313	-31.0625
8.8025	-1.423438	-22.09375
8.805	-1.154688	-66.8125
8.8075	-0.9625	-87.75
8.81	-0.8421875	-51.46875
8.8125	-0.8125	-30.40625
8.815	-0.878125	-115.1875
8.8175	-1.040625	-182.125
8.82	-1.226562	-147.9688
8.8225	-1.364063	-108.1875
8.825	-1.5125	14.375
8.8275	-1.703125	107.8438
8.83	-1.957813	-8.84375
8.8325	-2.178125	-94.0625
8.835	-2.24375	-98.15625
8.8375	-2.221875	-173.0625
8.84	-2.15	-237.0625
8.8425	-2.071875	-211.4062
8.845	-1.995313	-94.8125
8.8475	-1.898438	-68.6875
8.85	-1.848438	-65.21875
8.8525	-1.804688	112.9062
8.855	-1.698438	322.7812
8.8575	-1.592188	421.4688
8.86	-1.476562	582.2812
8.8625	-1.360938	788.8125
8.865	-1.328125	734.6562
8.8675	-1.38125	735
8.87	-1.510938	790.7188
8.8725	-1.6875	737.0312
8.875	-1.8625	587.9062
8.8775	-2.03125	483.9688
8.88	-2.153125	400.9062
8.8825	-2.201563	141.0625
8.885	-2.178125	44.28125
8.8875	-2.076563	-31.15625
8.89	-1.9	-90
8.8925	-1.639063	-93.6875
8.895	-1.30625	-154.8125
8.8975	-0.95625	-163.4062
8.9	-0.69375	-196.25
8.9025	-0.55625	-170.6875
8.905	-0.609375	-119.3438
8.9075	-0.840625	-167.0938
8.91	-1.139063	-194.9375
8.9125	-1.5375	-183.7188
8.915	-2.021875	-170.9062
8.9175	-2.509375	-191.6875
8.92	-2.965625	-231.7188
8.9225	-3.339063	-128.4062
8.925	-3.603125	-203.4375
8.9275	-3.739063	-167.25
8.93	-3.679688	-17
8.9325	-3.423438	-141.0312
8.935	-3.00625	-113.1875
8.9375	-2.510938	-181.4688
8.94	-2.00625	-163.5312
8.9425	-1.55625	-46.59375
8.945	-1.278125	-81.09375
8.9475	-1.235938	-93.40625
8.95	-1.328125	-127.25
8.9525	-1.44375	-125.75
8.955	-1.553125	-76.6875
8.9575	-1.6625	-56.15625
8.96	-1.809375	-67.40625
8.9625	-1.95	-78.125
8.965	-2.054688	-97.28125
8.9675	-2.157812	-59.125
8.97	-2.182813	-71.375
8.9725	-2.0875	-103.3125
8.975	-1.8875	-46.25
8.9775	-1.567188	-37.0625
8.98	-1.10625	-39.78125
8.9825	-0.5046875	-74.09375
8.985	0.24375	-89.1875
8.9875	1.160937	-68.84375
8.99	2.289062	-77.15625
8.9925	3.707813	-8.21875
8.995	5.496875	-30.21875
8.9975	7.821875	-70.125
9	10.77656	-99.1875
9.0025	14.25469	-26.375
9.005	17.97813	65.84375
9.0075	21.62344	-4.53125
9.01	24.98438	113.0625
9.0125	27.87656	57
9.015	30.34219	-64.625
9.0175	32.46094	-61.375
9.02	34.22969	56.59375
9.0225	35.70625	236.5312
9.025	36.80313	199.7812
9.0275	37.41875	196.9375
9.03	37.52969	115.7812
9.0325	37.09219	80.625
9.035	36.075	152.0312
9.0375	34.50469	118.375
9.04	32.48281	118.5
9.0425	30.13125	133.6875
9.045	27.54063	109.9062
9.0475	24.80313	151.5625
9.05	21.97813	107.5
9.0525	19.10938	99.84375
9.055	16.28906	110
9.0575	13.60938	91.46875
9.06	11.12344	68.84375
9.0625	8.879688	-7.65625
9.065	6.807813	88.5
9.0675	4.742188	178.9688
9.07	2.63125	121.25
9.0725	0.5171875	91.65625
9.075	-1.49375	30.09375
9.0775	-3.2875	41.90625
9.08	-4.834375	121.6562
9.0825	-6.228125	-40.1875
9.085	-7.560938	-2.90625
9.0875	-8.85	165.4375
9.09	-10.04375	116.3125
9.0925	-11.0875	70.5625
9.095	-11.97344	-15.6875
9.0975	-12.7125	82.75
9.1	-13.38594	-6.25
9.1025	-14.05938	-164.7188
9.105	-14.72969	76.5625
9.1075	-15.47031	-25.78125
9.11	-16.2375	-92.34375
9.1125	-16.90156	15.65625
9.115	-17.47188	-74.0625
9.1175	-18.02188	-1.15625
9.12	-18.56094	4.71875
9.1225	-19.05156	0.40625
9.125	-19.45938	46.78125
9.1275	-19.76094	-40.625
9.13	-19.91406	-28.375
9.1325	-19.86406	7.34375
9.135	-19.67031	-53.46875
9.1375	-19.44844	-51.65625
9.14	-19.2625	63.9375
9.1425	-19.10781	27
9.145	-18.95	-71.625
9.1475	-18.7625	-62.875
9.15	-18.50938	-65.03125
9.1525	-18.2625	-44.8125
9.155	-17.97188	-54.5
9.1575	-17.51406	-80.28125
9.16	-16.87031	-73.5625
9.1625	-16	-33.8125
9.165	-14.95781	-26.9375
9.1675	-13.875	-71.5625
9.17	-12.80469	-42.0625
9.1725	-11.8	-53.5
9.175	-10.85156	-42.875
9.1775	-10.04688	-26.3125
9.18	-9.492188	-113.125
9.1825	-9.140625	-25.09375
9.185	-9.007812	-56.125
9.1875	-8.94375	-40.71875
9.19	-8.9	63.21875
9.1925	-8.965625	-114.0312
9.195	-8.923438	-142.375
9.1975	-8.729688	-28.46875
9.2	-8.495313	-4.40625
9.2025	-8.160938	61.34375
9.205	-7.732813	108.2188
9.2075	-7.21875	29.5625
9.21	-6.595313	-0.375
9.2125	-5.904688	44.8125
9.215	-5.195312	47.53125
9.2175	-4.498438	-13.1875
9.22	-3.842188	25.0625
9.2225	-3.273438	47.53125
9.225	-2.807813	-79.125
9.2275	-2.4375	-42
9.23	-2.221875	-0.4375
9.2325	-2.18125	-3.375
9.235	-2.2875	-9
9.2375	-2.523438	-0.6875
9.24	-2.842188	-29.25
9.2425	-3.15	-88.375
9.245	-3.36875	-109.125
9.2475	-3.482813	-262.0938
9.25	-3.525	-124.4688
9.2525	-3.51875	104.0625
9.255	-3.509375	-49.34375
9.2575	-3.510938	-98.75
9.26	-3.520313	-82.53125
9.2625	-3.553125	-130.5938
9.265	-3.554688	-60.9375
9.2675	-3.509375	-149.2188
9.27	-3.553125	-143.9688
9.2725	-3.7	-117.0312
9.275	-3.889063	-109.9062
9.2775	-4.0625	-114.8125
9.28	-4.146875	-140.6875
9.2825	-4.21875	-72.03125
9.285	-4.24375	-100.8125
9.2875	-4.171875	-64.40625
9.29	-4.151562	-73.40625
9.2925	-4.225	-125.5312
9.295	-4.346875	-183.25
9.2975	-4.473438	-184.8125
9.3	-4.529688	-106.9375
9.3025	-4.559375	-21.09375
9.305	-4.601562	134.875
9.3075	-4.585938	329.75
9.31	-4.509375	586.5312
9.3125	-4.459375	687.1875
9.315	-4.470313	689.6562
9.3175	-4.532813	864.7188
9.32	-4.626563	913.2812
9.3225	-4.707813	815.3438
9.325	-4.735938	764.8125
9.3275	-4.696875	703.25
9.33	-4.623438	597.125
9.3325	-4.515625	453.1875
9.335	-4.364063	221.2188
9.3375	-4.195312	105.5312
9.34	-4.054688	3.40625
9.3425	-3.932813	-116.25
9.345	-3.785938	-187.4062
9.3475	-3.496875	-216.125
9.35	-3.076563	-185.5312
9.3525	-2.54375	-192.6875
9.355	-2.04375	-165.0938
9.3575	-2.08125	-192.5
9.36	-2.10625	-178.5
9.3625	-1.889063	-156.5
9.365	-1.784375	-186.6562
9.3675	-1.570312	-191.5312
9.37	-1.832813	-233.2188
9.3725	-2.351562	-220.5625
9.375	-2.651563	-211.5625
9.3775	-2.95	-148.8125
9.38	-3.28125	-104.1875
9.3825	-3.5	-210.5
9.385	-3.307813	-202.0312
9.3875	-2.9375	-170.9375
9.39	-2.507812	-202.0938
9.3925	-2.079687	-191.1875
9.395	-1.676563	-148.75
9.3975	-1.273438	-162.5625
9.4	-0.884375	-166.375
9.4025	-0.484375	-150.7188
9.405	-0.2	-155.5625
9.4075	-0.1	-168.75
9.41	-0.15	-215.25
9.4125	-0.215625	-204.25
9.415	-0.20625	-157.8125
9.4175	-0.215625	-187.0625
9.42	-0.153125	-109.7812
9.4225	0.04375	-23.84375
9.425	0.3015625	-93.8125
9.4275	0.6765625	-162.875
9.43	1.120313	-157.9062
9.4325	1.614063	-159.2188
9.435	2.242188	-100.5625
9.4375	3.042188	-85.9375
9.44	4.114063	-142.75
9.4425	5.553125	-47.3125
9.445	7.45625	-4.6875
9.4475	9.907813	-63.5625
9.45	12.88906	-114.75
9.4525	16.35469	-76.9375
9.455	19.95312	-75.15625
9.4575	23.38906	-94.46875
9.46	26.53594	-13.21875
9.4625	29.24844	12.78125
9.465	31.59375	-49.8125
9.4675	33.62031	-52.78125
9.47	35.29531	-16.1875
9.4725	36.64531	-14.3125
9.475	37.67969	62.09375
9.4775	38.34844	41.65625
9.48	38.62344	12.5
9.4825	38.47344	82.15625
9.485	37.77969	47.96875
9.4875	36.56719	-40.09375
9.49	34.94063	-23
9.4925	32.97031	31.65625
9.495	30.69375	34.5
9.4975	28.15781	100.75
9.5	25.46563	101.375
9.5025	22.65156	66.6875
9.505	19.7875	67.3125
9.5075	16.9	29.71875
9.51	13.99375	82.125
9.5125	11.14375	29.59375
9.515	8.403125	-80.28125
9.5175	5.790625	-64.65625
9.52	3.325	-39.375
9.5225	1.029688	-27.875
9.525	-1.0375	-59.8125
9.5275	-2.876563	-62.71875
9.53	-4.504688	-96.3125
9.5325	-5.942188	-85.71875
9.535	-7.229688	18.78125
9.5375	-8.367188	63.96875
9.54	-9.340625	25.875
9.5425	-10.12188	-52.1875
9.545	-10.72656	-68.15625
9.5475	-11.26094	-117.125
9.55	-11.80313	-152.75
9.5525	-12.35156	-67.25
9.555	-12.91094	-92.71875
9.5575	-13.45312	-87.40625
9.56	-13.9875	-111.4062
9.5625	-14.49531	-178.6562
9.565	-14.94844	-96.875
9.5675	-15.40313	-127.6875
9.57	-15.84063	-128.5938
9.5725	-16.26094	-125.5312
9.575	-16.60313	-147.5312
9.5775	-16.80156	-106.0625
9.58	-16.90156	-130.1562
9.5825	-16.93125	-153.7188
9.585	-16.92344	-121.1875
9.5875	-16.90938	-135.0312
9.59	-16.95	-145.1562
9.5925	-17.05625	-48.75
9.595	-17.23438	-113.1875
9.5975	-17.45469	-215.9375
9.6	-17.61875	-183.5312
9.6025	-17.72031	-231.125
9.605	-17.76094	-221.8125
9.6075	-17.74375	-150.3125
9.61	-17.73281	-50.25
9.6125	-17.72188	-8.3125
9.615	-17.72656	-171.1875
9.6175	-17.74219	-223.5312
9.62	-17.72813	-246.1562
9.6225	-17.71562	-252.8438
9.625	-17.7	-207.5938
9.6275	-17.72969	-125.0625
9.63	-17.77969	-51.25
9.6325	-17.77031	-112.5625
9.635	-17.71719	-164.8438
9.6375	-17.61094	-182.75
9.64	-17.45469	-148.0938
9.6425	-17.27344	-146.4375
9.645	-17.04688	-200.7188
9.6475	-16.775	-164.5312
9.65	-16.46719	-197.5625
9.6525	-16.08125	-211.3125
9.655	-15.61406	-137.375
9.6575	-15.1375	-116.8438
9.66	-14.61563	-101.3125
9.6625	-13.9875	-123.1562
9.665	-13.30313	-76.53125
9.6675	-12.59375	-53.25
9.67	-11.85	-102.0938
9.6725	-11.11563	-138.0938
9.675	-10.41094	-89.71875
9.6775	-9.726562	-97.34375
9.68	-9.101562	-163.5625
9.6825	-8.50625	-174.5312
9.685	-7.934375	-176.0312
9.6875	-7.453125	-96.875
9.69	-7.051563	-63.6875
9.6925	-6.754688	-120.7812
9.695	-6.523438	-130.4062
9.6975	-6.248438	-64.0625
9.7	-5.882812	-123.75
9.7025	-5.435938	-147.625
9.705	-4.870313	-165.8438
9.7075	-4.14375	-249.4375
9.71	-3.423438	-246.4375
9.7125	-2.829688	-225.2812
9.715	-2.345312	-218.625
9.7175	-1.9875	-183.2188
9.72	-1.801563	-214.1562
9.7225	-1.759375	-224.0312
9.725	-1.7625	-178.4375
9.7275	-1.792188	-222.8125
9.73	-1.8375	-214.5
9.7325	-1.885938	-227.5
9.735	-1.926563	-261.5312
9.7375	-1.96875	-239.1875
9.74	-2.010938	-229.25
9.7425	-2.042188	-196.6562
9.745	-2.045313	-215.0625
9.7475	-2.023438	-268.1875
9.75	-2.007812	-308.875
9.7525	-1.996875	-331.0625
9.755	-1.970313	-235.1875
9.7575	-1.896875	-184.0938
9.76	-1.807813	-205.5
9.7625	-1.760938	-45.4375
9.765	-1.792188	164.4062
9.7675	-1.925	301.5938
9.77	-2.117188	527.6875
9.7725	-2.284375	683.375
9.775	-2.357813	768.1562
9.7775	-2.298437	822.25
9.78	-2.1625	746.3438
9.7825	-2.010938	772.8125
9.785	-1.851562	740.7812
9.7875	-1.689063	559.2188
9.79	-1.559375	424.8125
9.7925	-1.410938	242.2812
9.795	-1.235938	45.3125
9.7975	-1.154688	-87.0625
9.8	-1.176562	-128.8125
9.8025	-1.275	-207.375
9.805	-1.460938	-299.9062
9.8075	-1.70625	-294.625
9.81	-1.923438	-350.9688
9.8125	-2.010938	-404.6562
9.815	-1.985938	-330.9375
9.8175	-1.990625	-247.9375
9.82	-2.073438	-274.2188
9.8225	-2.184375	-360.9375
9.825	-2.31875	-318.125
9.8275	-2.3875	-271.5938
9.83	-2.290625	-290
9.8325	-2.117188	-301.1562
9.835	-1.93125	-357.875
9.8375	-1.754688	-338.2188
9.84	-1.645313	-229.4688
9.8425	-1.6375	-236.7812
9.845	-1.685938	-268
9.8475	-1.746875	-240.6562
9.85	-1.848438	-247.1562
9.8525	-1.98125	-253.625
9.855	-2.148438	-248.0625
9.8575	-2.3625	-271.125
9.86	-2.573438	-267.7812
9.8625	-2.715625	-305.9062
9.865	-2.75625	-287.9375
9.8675	-2.675	-234.2188
9.87	-2.546875	-297.7188
9.8725	-2.39375	-275.75
9.875	-2.265625	-221.4375
9.8775	-2.301563	-177.9375
9.88	-2.523438	-218.75
9.8825	-2.870313	-243.4062
9.885	-3.226562	-281.3125
9.8875	-3.539062	-330.2188
9.89	-3.792188	-236.625
9.8925	-3.86875	-197.0938
9.895	-3.65	-166.8125
9.8975	-3.05625	-161.1562
9.9	-2.05	-226.4688
9.9025	-0.5625	-245
9.905	1.414062	-263.75
9.9075	3.871875	-302.75
9.91	6.878125	-171.2188
9.9125	10.34688	-64.46875
9.915	14.03594	-112.5625
9.9175	17.72188	-136.9688
9.92	21.27656	-129.75
9.9225	24.49688	-154.8438
9.925	27.19688	-126.375
9.9275	29.48281	-93.375
9.93	31.37031	-84.1875
9.9325	32.87969	-43.15625
9.935	34.16719	-49.90625
9.9375	35.28594	-55.125
9.94	36.16094	-58.3125
9.9425	36.64531	-46.375
9.945	36.64219	-22.09375
9.9475	36.04531	-79.78125
9.95	34.83281	-52.78125
9.9525	33.10156	-1.90625
9.955	30.9875	-35.59375
9.9575	28.64375	-45.59375
9.96	26.1375	-20.9375
9.9625	23.46563	-67.8125
9.965	20.66719	-97.65625
9.9675	17.83906	-37.4375
9.97	15.08125	28.625
9.9725	12.46563	2.5625
9.975	10.04063	-75.09375
9.9775	7.828125	-54.0625
9.98	5.759375	-71.21875
9.9825	3.85	-134.4062
9.985	2.115625	-97.53125
9.9875	0.509375	-72.4375
9.99	-0.940625	-71.53125
9.9925	-2.210938	-49.96875
9.995	-3.34375	-131.6875
9.9975	-4.392188	-182.4688
10	-5.340625	-119.8125
10.0025	-6.201563	-125.5312
10.005	-7.090625	-158.1562
10.0075	-7.982813	-167.875
10.01	-8.785938	-180.7812
10.0125	-9.542188	-132
10.015	-10.25469	-151.4062
10.0175	-10.84844	-185.3438
10.02	-11.38906	-114.4375
10.0225	-11.92031	-117.8125
10.025	-12.41563	-171.5938
10.0275	-12.87344	-120.6875
10.03	-13.25625	-134.1562
10.0325	-13.54688	-179.375
10.035	-13.76562	-79.125
10.0375	-13.96719	-69.4375
10.04	-14.20938	-165.5312
10.0425	-14.47656	-184.5
10.045	-14.72188	-209.0312
10.0475	-14.91094	-200.4375
10.05	-15.02813	-169.5625
10.0525	-15.09219	-217.2812
10.055	-15.09375	-172.5938
10.0575	-15.03594	-107.2812
10.06	-14.99531	-154.4688
10.0625	-15	-197.4688
10.065	-14.9875	-198.2188
10.0675	-14.96406	-214.5625
10.07	-15.02188	-189.125
10.0725	-15.16875	-172.9688
10.075	-15.33906	-194.8438
10.0775	-15.48438	-162.8438
10.08	-15.56719	-136.625
10.0825	-15.58125	-188.8438
10.085	-15.48906	-179.4375
10.0875	-15.35156	-193.7188
10.09	-15.25313	-255.125
10.0925	-15.17813	-133.5
10.095	-15.10625	-158.5625
10.0975	-15.03906	-171.75
10.1	-14.98125	-135.6875
10.1025	-14.92969	-100.1875
10.105	-14.9375	-58.9375
10.1075	-14.99063	-200.1562
10.11	-14.98906	-190.1875
10.1125	-14.82344	-102.25
10.115	-14.475	-133.2812
10.1175	-14.025	-148.9688
10.12	-13.4875	-121.875
10.1225	-12.88594	-168.625
10.125	-12.32344	-152.2812
10.1275	-11.84531	-106.8125
10.13	-11.44375	-104.1562
10.1325	-11.05781	-102.625
10.135	-10.72344	-194.9062
10.1375	-10.38125	-125
10.14	-10.04688	-113.7812
10.1425	-9.878125	-95.9375
10.145	-9.673438	-54.09375
10.1475	-9.3125	-153.0312
10.15	-8.93125	-95.75
10.1525	-8.573438	-123.4688
10.155	-8.235938	-149.8438
10.1575	-7.932813	-107.875
10.16	-7.614063	-107.3438
10.1625	-7.170313	-171.625
10.165	-6.548438	-201.7188
10.1675	-5.840625	-163.0312
10.17	-5.146875	-193.3438
10.1725	-4.49375	-259.8438
10.175	-3.896875	-238.375
10.1775	-3.335938	-178.7188
10.18	-2.723438	-239.3438
10.1825	-2.029688	-194.5625
10.185	-1.335938	-146.5
10.1875	-0.7390625	-202.375
10.19	-0.2890625	-227.0312
10.1925	0.0390625	-190.0938
10.195	0.284375	-189.8125
10.1975	0.471875	-200.8438
10.2	0.6234375	-109.8438
10.2025	0.715625	-225.2812
10.205	0.7484375	-284.4375
10.2075	0.7046875	-264.4688
10.21	0.5421875	-280.875
10.2125	0.3171875	-89.15625
10.215	0.06875	-188
10.2175	-0.0890625	-283.7188
10.22	-0.078125	-238.9062
10.2225	0.0875	-243.2188
10.225	0.45625	-184.375
10.2275	0.94375	-206.9688
10.23	1.50625	-44.59375
10.2325	1.970313	196.7188
10.235	2.142187	325.6875
10.2375	2.071875	510.1562
10.24	1.7875	638.25
10.2425	1.371875	641.9375
10.245	0.896875	660.0625
10.2475	0.334375	700.5312
10.25	-0.3078125	665.7188
10.2525	-0.9671875	524.4375
10.255	-1.570312	333.5625
10.2575	-2.067188	177
10.26	-2.403125	2.59375
10.2625	-2.604688	-76.65625
10.265	-2.729688	-85.3125
10.2675	-2.825	-118.8438
10.27	-2.890625	-130.4688
10.2725	-2.935938	-255.7188
10.275	-2.926563	-300.25
10.2775	-2.79375	-257.4062
10.28	-2.609375	-248.9062
10.2825	-2.532813	-255.6875
10.285	-2.68125	-274.1875
10.2875	-3.078125	-264.0938
10.29	-3.61875	-283.25
10.2925	-4.115625	-331.9375
10.295	-4.60625	-351.7188
10.2975	-5.03125	-339.4062
10.3	-5.282813	-304.7188
10.3025	-5.428125	-181.7812
10.305	-5.409375	-261.7812
10.3075	-5.34375	-282.9062
10.31	-5.239063	-143.4688
10.3125	-5.059375	-264.125
10.315	-4.904688	-221.5
10.3175	-4.8625	-209.25
