0	0.096875	1
0.0025	1.465625	16.25
0.005	5.228125	59.03125
0.0075	10.18906	115.1875
0.01	13.92188	158.4688
0.0125	15.65625	180.5
0.015	16.1375	182.5312
0.0175	16.14062	170.375
0.02	16.12969	157.1562
0.0225	16.25625	150.75
0.025	16.51875	151.3438
0.0275	16.87656	150
0.03	17.28125	135.2188
0.0325	17.71094	112.625
0.035	18.14531	99.21875
0.0375	18.56875	95.8125
0.04	18.97188	90.4375
0.0425	19.35156	80.53125
0.045	19.71563	76
0.0475	20.06719	79.375
0.05	20.40156	78.46875
0.0525	20.70781	66.59375
0.055	20.96094	47.21875
0.0575	21.15	26.96875
0.06	21.27813	15.9375
0.0625	21.34688	20.78125
0.065	21.35	33.34375
0.0675	21.25781	41.28125
0.07	21.04219	41.25
0.0725	20.69688	36.40625
0.075	20.22813	30.25
0.0775	19.65938	21.84375
0.08	19	12.3125
0.0825	18.25469	9.21875
0.085	17.40469	12.875
0.0875	16.42031	11.53125
0.09	15.28594	2.6875
0.0925	14.00781	-2.3125
0.095	12.60469	3.46875
0.0975	11.09063	13.3125
0.1	9.478125	15.4375
0.1025	7.776563	7.0625
0.105	5.998438	-6.6875
0.1075	4.1625	-19.53125
0.11	2.28125	-25.46875
0.1125	0.3703125	-22.0625
0.115	-1.55625	-11.5625
0.1175	-3.492188	1.25
0.12	-5.428125	6.40625
0.1225	-7.346875	-1.9375
0.125	-9.223438	-16.5625
0.1275	-11.01562	-25.9375
0.13	-12.6875	-27.15625
0.1325	-14.21094	-26.125
0.135	-15.57031	-28.875
0.1375	-16.75625	-31.6875
0.14	-17.77031	-34.125
0.1425	-18.61875	-41.1875
0.145	-19.3	-43.1875
0.1475	-19.82031	-31.4375
0.15	-20.1875	-18.5
0.1525	-20.40938	-16.65625
0.155	-20.49063	-21.03125
0.1575	-20.42344	-27.03125
0.16	-20.2125	-35.625
0.1625	-19.85938	-44.78125
0.165	-19.38125	-50.1875
0.1675	-18.79844	-48.9375
0.17	-18.13281	-43.53125
0.1725	-17.40625	-40.5
0.175	-16.63906	-41.78125
0.1775	-15.8375	-44
0.18	-15.01094	-48.09375
0.1825	-14.1625	-54.625
0.185	-13.30156	-55.90625
0.1875	-12.43438	-51.71875
0.19	-11.57344	-51.5625
0.1925	-10.72188	-56.84375
0.195	-9.890625	-61.15625
0.1975	-9.085938	-61.25
0.2	-8.317188	-59.65625
0.2025	-7.595313	-61.125
0.205	-6.948438	-64.71875
0.2075	-6.396875	-62.59375
0.21	-5.945312	-57.125
0.2125	-5.589063	-55.5625
0.215	-5.30625	-56.1875
0.2175	-5.089063	-60.96875
0.22	-4.939063	-74.5625
0.2225	-4.85625	-90.84375
0.225	-4.8375	-100.2812
0.2275	-4.871875	-100.5
0.23	-4.95	-90.84375
0.2325	-5.067188	-76.53125
0.235	-5.223438	-70.84375
0.2375	-5.434375	-79.875
0.24	-5.707813	-92.84375
0.2425	-6.040625	-95.34375
0.245	-6.423438	-90.5625
0.2475	-6.834375	-90.09375
0.25	-7.248438	-92.90625
0.2525	-7.65	-92.96875
0.255	-8.034375	-90.5
0.2575	-8.401563	-85.8125
0.26	-8.75625	-80.3125
0.2625	-9.095313	-77.75
0.265	-9.40625	-74.1875
0.2675	-9.673438	-70
0.27	-9.895313	-78.03125
0.2725	-10.06875	-96.0625
0.275	-10.19844	-105.2188
0.2775	-10.2875	-98.65625
0.28	-10.34688	-88.03125
0.2825	-10.38281	-82.15625
0.285	-10.40469	-83.59375
0.2875	-10.41719	-94.8125
0.29	-10.42031	-108.1562
0.2925	-10.41719	-109.75
0.295	-10.41094	-100.5938
0.2975	-10.40156	-92.53125
0.3	-10.39219	-85.9375
0.3025	-10.375	-80.84375
0.305	-10.35	-83.4375
0.3075	-10.3125	-90.71875
0.31	-10.25938	-96.28125
0.3125	-10.19219	-100.2188
0.315	-10.1125	-102.8125
0.3175	-10.02031	-98.9375
0.32	-9.915625	-89.90625
0.3225	-9.801563	-86.90625
0.325	-9.679688	-92.90625
0.3275	-9.548438	-94.71875
0.33	-9.403125	-86.375
0.3325	-9.242188	-80.84375
0.335	-9.070312	-82.53125
0.3375	-8.884375	-85.5625
0.34	-8.678125	-92.21875
0.3425	-8.448438	-102.0625
0.345	-8.209375	-106.0312
0.3475	-7.98125	-102.6875
0.35	-7.792188	-98.09375
0.3525	-7.65625	-92.84375
0.355	-7.565625	-85.90625
0.3575	-7.5	-79.8125
0.36	-7.44375	-78.5625
0.3625	-7.382812	-81.5625
0.365	-7.31875	-83.875
0.3675	-7.25625	-84.25
0.37	-7.196875	-85.09375
0.3725	-7.1375	-87.375
0.375	-7.060938	-88.28125
0.3775	-6.94375	-85.75
0.38	-6.78125	-80.03125
0.3825	-6.584375	-70.25
0.385	-6.382812	-56.84375
0.3875	-6.207813	-48.40625
0.39	-6.071875	-57.4375
0.3925	-5.965625	-81.28125
0.395	-5.864063	-99.15625
0.3975	-5.74375	-95.3125
0.4	-5.604688	-75.5
0.4025	-5.453125	-61
0.405	-5.30625	-65.09375
0.4075	-5.16875	-81.34375
0.41	-5.042188	-97.1875
0.4125	-4.926563	-103.625
0.415	-4.821875	-97.65625
0.4175	-4.726562	-87.40625
0.42	-4.642188	-83.3125
0.4225	-4.570312	-80.5
0.425	-4.5125	-69.125
0.4275	-4.470313	-55.90625
0.43	-4.4375	-55.34375
0.4325	-4.40625	-66.75
0.435	-4.370312	-75.25
0.4375	-4.321875	-73.78125
0.44	-4.253125	-66.8125
0.4425	-4.164062	-58.5625
0.445	-4.05625	-52.09375
0.4475	-3.934375	-47.0625
0.45	-3.807813	-43.25
0.4525	-3.682813	-44.71875
0.455	-3.55625	-49.84375
0.4575	-3.421875	-49.75
0.46	-3.273438	-39.90625
0.4625	-3.1125	-26.46875
0.465	-2.946875	-18.15625
0.4675	-2.790625	-14.53125
0.47	-2.6625	-9.8125
0.4725	-2.565625	-6.03125
0.475	-2.503125	-4.75
0.4775	-2.475	-1.78125
0.48	-2.482813	2.0625
0.4825	-2.525	8.5625
0.485	-2.595313	25.375
0.4875	-2.68125	42.1875
0.49	-2.779688	34.6875
0.4925	-2.882812	3.40625
0.495	-2.985938	-26.53125
0.4975	-3.082813	-41.34375
0.5	-3.1625	-48.1875
0.5025	-3.214063	-56.125
0.505	-3.229688	-65.15625
0.5075	-3.2125	-69.75
0.51	-3.164062	-72.9375
0.5125	-3.092188	-74.65625
0.515	-3.003125	-66.0625
0.5175	-2.909375	-54.8125
0.52	-2.823438	-56.53125
0.5225	-2.746875	-66.8125
0.525	-2.678125	-72.40625
0.5275	-2.615625	-69.78125
0.53	-2.548438	-61.59375
0.5325	-2.46875	-57.1875
0.535	-2.36875	-63.75
0.5375	-2.251562	-73.5
0.54	-2.125	-75.03125
0.5425	-2.003125	-70.15625
0.545	-1.895313	-66.21875
0.5475	-1.80625	-64.65625
0.55	-1.748438	-67.09375
0.5525	-1.721875	-75.90625
0.555	-1.734375	-85.28125
0.5575	-1.792188	-84.25
0.56	-1.892188	-73.46875
0.5625	-2.023438	-58.625
0.565	-2.164062	-26.4375
0.5675	-2.29375	44.40625
0.57	-2.4	160.375
0.5725	-2.473438	316.1562
0.575	-2.510938	490.4062
0.5775	-2.510938	650.6875
0.58	-2.473438	776.25
0.5825	-2.4	855.0625
0.585	-2.3	879.7812
0.5875	-2.1875	858.4688
0.59	-2.064062	806.4375
0.5925	-1.926563	732.2812
0.595	-1.775	638.875
0.5975	-1.620313	518.3438
0.6	-1.489063	368.9375
0.6025	-1.39375	219.0938
0.605	-1.340625	104
0.6075	-1.323438	31.75
0.61	-1.334375	-8.875
0.6125	-1.373438	-26.96875
0.615	-1.432813	-29.5625
0.6175	-1.510938	-25.71875
0.62	-1.598438	-26.71875
0.6225	-1.682813	-37.90625
0.625	-1.754688	-53.15625
0.6275	-1.803125	-64.8125
0.63	-1.829688	-72.09375
0.6325	-1.828125	-78.96875
0.635	-1.8	-85.96875
0.6375	-1.745313	-89.78125
0.64	-1.670313	-89.9375
0.6425	-1.585938	-89.03125
0.645	-1.50625	-88.09375
0.6475	-1.451563	-87.5
0.65	-1.434375	-89.6875
0.6525	-1.451563	-94.375
0.655	-1.496875	-97.3125
0.6575	-1.55625	-99.5
0.66	-1.626563	-104.4688
0.6625	-1.701563	-107.4688
0.665	-1.773438	-100.2812
0.6675	-1.832813	-84.4375
0.67	-1.878125	-66.625
0.6725	-1.914062	-54.75
0.675	-1.948438	-56.90625
0.6775	-1.978125	-71.375
0.68	-2.007812	-84.46875
0.6825	-2.032812	-82.4375
0.685	-2.059375	-67.53125
0.6875	-2.085938	-53.75
0.69	-2.1125	-53
0.6925	-2.134375	-63.96875
0.695	-2.145313	-77.5625
0.6975	-2.1375	-85.6875
0.7	-2.10625	-85.75
0.7025	-2.05625	-79.15625
0.705	-1.992188	-67.84375
0.7075	-1.921875	-59.375
0.71	-1.860938	-58.3125
0.7125	-1.81875	-58.96875
0.715	-1.80625	-55.53125
0.7175	-1.821875	-50.03125
0.72	-1.854688	-46.15625
0.7225	-1.9	-45.78125
0.725	-1.939063	-45.125
0.7275	-1.965625	-36.34375
0.73	-1.975	-23.5625
0.7325	-1.960938	-21.90625
0.735	-1.917188	-36.96875
0.7375	-1.823438	-51.6875
0.74	-1.657813	-48.3125
0.7425	-1.3875	-31.5625
0.745	-0.9890625	-16.96875
0.7475	-0.4421875	-10.375
0.75	0.2703125	-9.53125
0.7525	1.157813	-14.09375
0.755	2.246875	-23.78125
0.7575	3.567188	-30.84375
0.76	5.157813	-24.84375
0.7625	7.048438	-12.21875
0.765	9.226562	-6.40625
0.7675	11.65938	-9.1875
0.77	14.32031	-13.03125
0.7725	17.18281	-10.125
0.775	20.21719	-4.53125
0.7775	23.39062	-8.40625
0.78	26.64688	-18.1875
0.7825	29.93125	-17.96875
0.785	33.18281	-8.28125
0.7875	36.33438	0.03125
0.79	39.31094	4.71875
0.7925	42.02031	8.84375
0.795	44.37344	14.5
0.7975	46.29219	21.0625
0.8	47.70469	30.03125
0.8025	48.58281	41.71875
0.805	48.94844	48.84375
0.8075	48.85938	48.78125
0.81	48.37969	49.1875
0.8125	47.55625	49.21875
0.815	46.42188	43.96875
0.8175	45.01875	40.625
0.82	43.38906	44.65625
0.8225	41.58281	53.5
0.825	39.65938	64.34375
0.8275	37.67344	72.25
0.83	35.675	73.59375
0.8325	33.71094	71.65625
0.835	31.80938	71.0625
0.8375	29.98594	72.875
0.84	28.25	73.71875
0.8425	26.60781	76.75
0.845	25.075	88.875
0.8475	23.66875	100.125
0.85	22.39688	94.4375
0.8525	21.25156	80.375
0.855	20.22813	81.125
0.8575	19.33125	98.40625
0.86	18.5875	111.7188
0.8625	18.01406	107.9375
0.865	17.60469	97.25
0.8675	17.33438	97.0625
0.87	17.17656	105.5938
0.8725	17.10938	100.4375
0.875	17.13281	75.8125
0.8775	17.24844	54.59375
0.88	17.45156	48.90625
0.8825	17.73125	46.6875
0.885	18.06719	40.6875
0.8875	18.44219	35.96875
0.89	18.83906	31.4375
0.8925	19.24844	19.59375
0.895	19.66719	3.6875
0.8975	20.08438	-5.375
0.9	20.5	-6.09375
0.9025	20.91094	-6.5625
0.905	21.31406	-9.96875
0.9075	21.69688	-13.8125
0.91	22.05	-17.5625
0.9125	22.3625	-24.875
0.915	22.6375	-33.25
0.9175	22.87188	-35.28125
0.92	23.05938	-32.46875
0.9225	23.19375	-30.90625
0.925	23.26719	-32.1875
0.9275	23.26875	-34.40625
0.93	23.17813	-36.96875
0.9325	22.97813	-39.28125
0.935	22.65469	-41.1875
0.9375	22.20625	-41.875
0.94	21.62969	-41.21875
0.9425	20.92969	-41.5
0.945	20.11719	-42.1875
0.9475	19.19531	-39.96875
0.95	18.15781	-33.875
0.9525	16.99844	-25.90625
0.955	15.71406	-19.46875
0.9575	14.30625	-21.875
0.96	12.78438	-37.4375
0.9625	11.15938	-56.21875
0.965	9.448438	-64.0625
0.9675	7.664062	-60.28125
0.97	5.807813	-55.625
0.9725	3.878125	-56.6875
0.975	1.873438	-60.0625
0.9775	-0.19375	-56.84375
0.98	-2.29375	-44.03125
0.9825	-4.390625	-32.09375
0.985	-6.45625	-30.5
0.9875	-8.476562	-34.875
0.99	-10.44375	-38.5625
0.9925	-12.35313	-43.0625
0.995	-14.18438	-48.34375
0.9975	-15.90781	-47.96875
1	-17.4875	-38.8125
1.0025	-18.88906	-30.375
1.005	-20.09375	-32.4375
1.0075	-21.09219	-39.28125
1.01	-21.87656	-40.5
1.0125	-22.44531	-38.0625
1.015	-22.79844	-38.4375
1.0175	-22.94063	-39.9375
1.02	-22.89531	-38.53125
1.0225	-22.69063	-33.28125
1.025	-22.34375	-26.25
1.0275	-21.86563	-20.5625
1.03	-21.26875	-19.5
1.0325	-20.56875	-22.71875
1.035	-19.77813	-24.84375
1.0375	-18.90625	-24.5625
1.04	-17.96406	-22.4375
1.0425	-16.96406	-15.90625
1.045	-15.92188	-7.03125
1.0475	-14.84688	-6.40625
1.05	-13.75781	-15.53125
1.0525	-12.67813	-24.875
1.055	-11.63906	-32.71875
1.0575	-10.66094	-38.21875
1.06	-9.75625	-34.53125
1.0625	-8.923438	-25.125
1.065	-8.160938	-21.90625
1.0675	-7.475	-22.6875
1.07	-6.871875	-18.4375
1.0725	-6.360938	-16.0625
1.075	-5.95	-24.46875
1.0775	-5.63125	-35.5625
1.08	-5.395313	-38.28125
1.0825	-5.232813	-36.1875
1.085	-5.145313	-37.21875
1.0875	-5.1375	-41.375
1.09	-5.20625	-42.78125
1.0925	-5.342188	-38.15625
1.095	-5.523438	-33.40625
1.0975	-5.734375	-31.53125
1.1	-5.971875	-30.78125
1.1025	-6.228125	-32.9375
1.105	-6.50625	-31.96875
1.1075	-6.796875	-21.875
1.11	-7.092188	-14.59375
1.1125	-7.3875	-18.75
1.115	-7.673438	-24.65625
1.1175	-7.953125	-26.375
1.12	-8.23125	-25.96875
1.1225	-8.515625	-23
1.125	-8.804688	-21.90625
1.1275	-9.0875	-27.9375
1.13	-9.353125	-35.15625
1.1325	-9.595313	-32.125
1.135	-9.810938	-20.375
1.1375	-10.00156	-13.5625
1.14	-10.175	-21.5625
1.1425	-10.32969	-37.0625
1.145	-10.46719	-42.71875
1.1475	-10.5875	-34
1.15	-10.69219	-22.625
1.1525	-10.78281	-18.21875
1.155	-10.86563	-20.6875
1.1575	-10.93906	-25.25
1.16	-11.00313	-24.71875
1.1625	-11.04844	-18.40625
1.165	-11.07656	-14.6875
1.1675	-11.08906	-16.9375
1.17	-11.09375	-19.21875
1.1725	-11.1	-22.9375
1.175	-11.11406	-34.21875
1.1775	-11.13281	-44.25
1.18	-11.14531	-44.0625
1.1825	-11.13125	-41.40625
1.185	-11.08281	-38.96875
1.1875	-10.9875	-32.5625
1.19	-10.85	-28.3125
1.1925	-10.67969	-29.65625
1.195	-10.49844	-30.34375
1.1975	-10.32812	-29.71875
1.2	-10.175	-29.3125
1.2025	-10.0375	-26.8125
1.205	-9.910938	-26.28125
1.2075	-9.7875	-33.65625
1.21	-9.657813	-41.21875
1.2125	-9.520313	-37.375
1.215	-9.370313	-27.84375
1.2175	-9.210938	-22.75
1.22	-9.04375	-19.3125
1.2225	-8.870313	-15.46875
1.225	-8.690625	-11.375
1.2275	-8.509375	-7.46875
1.23	-8.334375	-10.75
1.2325	-8.18125	-21
1.235	-8.057813	-26.75
1.2375	-7.967188	-31.21875
1.24	-7.8875	-43.28125
1.2425	-7.796875	-50.75
1.245	-7.678125	-42.75
1.2475	-7.525	-28.9375
1.25	-7.346875	-19.40625
1.2525	-7.151563	-13.53125
1.255	-6.948438	-11.34375
1.2575	-6.739063	-14.65625
1.26	-6.526563	-20.40625
1.2625	-6.317188	-24.46875
1.265	-6.11875	-24.28125
1.2675	-5.932813	-18.84375
1.27	-5.759375	-14.6875
1.2725	-5.6	-19
1.275	-5.454688	-26.40625
1.2775	-5.31875	-29
1.28	-5.1875	-28.59375
1.2825	-5.057813	-28.5
1.285	-4.923438	-30.03125
1.2875	-4.790625	-33.09375
1.29	-4.6625	-33.21875
1.2925	-4.54375	-26.59375
1.295	-4.4375	-17.75
1.2975	-4.342188	-11.625
1.3	-4.251563	-6.71875
1.3025	-4.170313	-3.3125
1.305	-4.1	-8.03125
1.3075	-4.04375	-20.75
1.31	-3.995313	-27.78125
1.3125	-3.945312	-17.78125
1.315	-3.8875	5.3125
1.3175	-3.817188	23.46875
1.32	-3.739063	22.65625
1.3225	-3.657813	12
1.325	-3.58125	12.40625
1.3275	-3.510938	28.78125
1.33	-3.448438	49.4375
1.3325	-3.3875	63.46875
1.335	-3.3375	62.34375
1.3375	-3.303125	47.71875
1.34	-3.284375	37
1.3425	-3.271875	34.09375
1.345	-3.2625	26.375
1.3475	-3.257812	13.34375
1.35	-3.267188	3.59375
1.3525	-3.29375	-5
1.355	-3.3375	-14.03125
1.3575	-3.39375	-18.90625
1.36	-3.451563	-19.1875
1.3625	-3.504688	-16.96875
1.365	-3.548438	-18.5625
1.3675	-3.575	-32.34375
1.37	-3.5875	-54.5
1.3725	-3.59375	-65.53125
1.375	-3.601562	-60.90625
1.3775	-3.614063	-57.3125
1.38	-3.625	-61
1.3825	-3.621875	-62.21875
1.385	-3.598438	-58.125
1.3875	-3.5625	-53.5625
1.39	-3.514063	-50.875
1.3925	-3.4625	-52.21875
1.395	-3.407813	-55.53125
1.3975	-3.346875	-53.25
1.4	-3.276563	-49.375
1.4025	-3.2	-52.6875
1.405	-3.126563	-57.8125
1.4075	-3.071875	-59.21875
1.41	-3.053125	-64.46875
1.4125	-3.065625	-76.46875
1.415	-3.10625	-88.9375
1.4175	-3.154688	-98.5625
1.42	-3.198438	-97.375
1.4225	-3.21875	-69.03125
1.425	-3.209375	1.34375
1.4275	-3.175	116.25
1.43	-3.11875	264.6875
1.4325	-3.048438	430.6562
1.435	-2.965625	591.5938
1.4375	-2.884375	719.8125
1.44	-2.817188	801.8438
1.4425	-2.775	849.6562
1.445	-2.751563	874.5938
1.4475	-2.734375	863.2188
1.45	-2.721875	803.1562
1.4525	-2.715625	704.0312
1.455	-2.71875	577.6875
1.4575	-2.729688	427.9062
1.46	-2.7375	274.9375
1.4625	-2.732813	149.4375
1.465	-2.71875	61.28125
1.4675	-2.7	2.09375
1.47	-2.678125	-38.15625
1.4725	-2.651563	-63.03125
1.475	-2.609375	-72.71875
1.4775	-2.54375	-72.96875
1.48	-2.446875	-76.875
1.4825	-2.33125	-87.78125
1.485	-2.203125	-97.625
1.4875	-2.06875	-105.7812
1.49	-1.9375	-117.9375
1.4925	-1.815625	-131.0625
1.495	-1.709375	-136.1875
1.4975	-1.620313	-132.0312
1.5	-1.553125	-124.5312
1.5025	-1.510938	-121.25
1.505	-1.501563	-123.5938
1.5075	-1.525	-129.5938
1.51	-1.576563	-137.375
1.5125	-1.648438	-143.1875
1.515	-1.73125	-144.4062
1.5175	-1.814063	-141.125
1.52	-1.8875	-133.5625
1.5225	-1.954688	-124.625
1.525	-2.014063	-121.9062
1.5275	-2.060938	-126.8438
1.53	-2.0875	-131.8125
1.5325	-2.098438	-129.8125
1.535	-2.10625	-122
1.5375	-2.121875	-118.5
1.54	-2.153125	-128.8438
1.5425	-2.190625	-142.0312
1.545	-2.21875	-139.5625
1.5475	-2.234375	-127.5312
1.55	-2.240625	-122.5938
1.5525	-2.248438	-121.5938
1.555	-2.267187	-116.7812
1.5575	-2.303125	-112.3125
1.56	-2.351562	-111.5938
1.5625	-2.40625	-112.625
1.565	-2.460938	-112.3125
1.5675	-2.515625	-112.2812
1.57	-2.578125	-117.5312
1.5725	-2.645313	-124.9688
1.575	-2.715625	-126.6562
1.5775	-2.778125	-124.5312
1.58	-2.815625	-120.2812
1.5825	-2.820312	-109.5938
1.585	-2.795313	-99.375
1.5875	-2.746875	-99.78125
1.59	-2.69375	-103.625
1.5925	-2.642188	-102.125
1.595	-2.592188	-98.90625
1.5975	-2.529688	-96.15625
1.6	-2.45	-93.75
1.6025	-2.348438	-93.625
1.605	-2.215625	-94
1.6075	-2.0375	-91.59375
1.61	-1.785938	-86.5625
1.6125	-1.425	-83.1875
1.615	-0.91875	-86.125
1.6175	-0.240625	-92.25
1.62	0.6375	-92.21875
1.6225	1.7375	-84.90625
1.625	3.082813	-78.71875
1.6275	4.690625	-78.65625
1.63	6.560938	-79.875
1.6325	8.670312	-74.65625
1.635	10.99219	-62.75
1.6375	13.50781	-48.125
1.64	16.20938	-42.09375
1.6425	19.08438	-53.78125
1.645	22.09844	-69.9375
1.6475	25.2	-72.125
1.65	28.32812	-63.25
1.6525	31.42188	-56.65625
1.655	34.4125	-54.78125
1.6575	37.23438	-51.03125
1.66	39.81094	-40.40625
1.6625	42.06406	-29.3125
1.665	43.91563	-23.75
1.6675	45.28438	-19
1.67	46.10156	-14.6875
1.6725	46.34375	-18.78125
1.675	46.04063	-27.75
1.6775	45.26406	-26.125
1.68	44.09688	-11.6875
1.6825	42.61875	3.46875
1.685	40.90156	13.65625
1.6875	39.00313	21.28125
1.69	36.975	23.03125
1.6925	34.8625	16.09375
1.695	32.71875	10.40625
1.6975	30.59375	15.9375
1.7	28.5375	24.71875
1.7025	26.575	26.5625
1.705	24.725	26.90625
1.7075	22.99375	34
1.71	21.38438	43.5
1.7125	19.91094	45.03125
1.715	18.58594	42.78125
1.7175	17.42344	43.25
1.72	16.425	42.5
1.7225	15.59063	37.4375
1.725	14.90781	30.375
1.7275	14.37031	26.34375
1.73	13.96875	25.59375
1.7325	13.68906	20.71875
1.735	13.50469	8.375
1.7375	13.39531	-3.21875
1.74	13.34219	-13.78125
1.7425	13.34219	-26.03125
1.745	13.40313	-36.21875
1.7475	13.52656	-44.5
1.75	13.71563	-51.34375
1.7525	13.96563	-53.34375
1.755	14.26406	-52.71875
1.7575	14.6	-56.1875
1.76	14.95469	-63.3125
1.7625	15.325	-68.125
1.765	15.70938	-71.21875
1.7675	16.10781	-78.40625
1.77	16.51406	-89.65625
1.7725	16.925	-97.875
1.775	17.33281	-98.28125
1.7775	17.72656	-95.40625
1.78	18.09844	-95.9375
1.7825	18.44063	-98.5625
1.785	18.75	-99.25
1.7875	19.02031	-99.1875
1.79	19.24531	-102.1875
1.7925	19.40313	-107.1875
1.795	19.47188	-108.4062
1.7975	19.42813	-110.125
1.8	19.25625	-118.625
1.8025	18.94219	-125.25
1.805	18.48438	-123.5938
1.8075	17.88281	-122.75
1.81	17.1375	-123.0312
1.8125	16.25938	-116.9375
1.815	15.25156	-110.4688
1.8175	14.11875	-108.5625
1.82	12.8625	-110.8125
1.8225	11.49688	-122.2188
1.825	10.03906	-138.5625
1.8275	8.496875	-143.5
1.83	6.865625	-135.5938
1.8325	5.13125	-128.9375
1.835	3.275	-128.125
1.8375	1.296875	-126.75
1.84	-0.784375	-124.4375
1.8425	-2.935938	-129.6562
1.845	-5.1125	-142.5938
1.8475	-7.271875	-149.5312
1.85	-9.375	-143.7188
1.8525	-11.39219	-133.875
1.855	-13.30625	-128.1562
1.8575	-15.09844	-126.2812
1.86	-16.74375	-122.9375
1.8625	-18.21406	-115.7812
1.865	-19.48906	-107.8438
1.8675	-20.55938	-103.375
1.87	-21.42344	-103.9688
1.8725	-22.0875	-107.2188
1.875	-22.55469	-110.7188
1.8775	-22.83281	-113.1875
1.88	-22.92969	-110.4688
1.8825	-22.85781	-102
1.885	-22.63438	-98.65625
1.8875	-22.275	-103.5625
1.89	-21.79531	-105.0938
1.8925	-21.20625	-101.0312
1.895	-20.51719	-100.6562
1.8975	-19.73281	-105.4062
1.9	-18.8625	-108.8438
1.9025	-17.92344	-109.0625
1.905	-16.93437	-110.1562
1.9075	-15.9125	-110.25
1.91	-14.87031	-100.4375
1.9125	-13.82656	-81.34375
1.915	-12.79063	-65.75
1.9175	-11.78438	-64.8125
1.92	-10.82188	-80.65625
1.9225	-9.915625	-102.2812
1.925	-9.073438	-112.9062
1.9275	-8.303125	-111.875
1.93	-7.607813	-105.2812
1.9325	-6.995313	-91.875
1.935	-6.470313	-78.09375
1.9375	-6.039062	-81.96875
1.94	-5.698438	-99.90625
1.9425	-5.446875	-106.4062
1.945	-5.276563	-90.625
1.9475	-5.175	-74.09375
1.95	-5.129688	-83.15625
1.9525	-5.134375	-110.5625
1.955	-5.182813	-128.1875
1.9575	-5.267188	-126.2812
1.96	-5.385938	-117.9062
1.9625	-5.540625	-112.0312
1.965	-5.73125	-106.1875
1.9675	-5.957813	-94.28125
1.97	-6.209375	-78.0625
1.9725	-6.482813	-64.8125
1.975	-6.767188	-56.90625
1.9775	-7.057813	-52.6875
1.98	-7.346875	-50.5625
1.9825	-7.6375	-51.375
1.985	-7.940625	-57.46875
1.9875	-8.259375	-67.875
1.99	-8.58125	-75.90625
1.9925	-8.882812	-75.84375
1.995	-9.142188	-69.90625
1.9975	-9.346875	-63.3125
2	-9.503125	-57.90625
2.0025	-9.620313	-53.96875
2.005	-9.714063	-52.03125
2.0075	-9.804688	-53.625
2.01	-9.904688	-60.34375
2.0125	-10.02188	-69.34375
2.015	-10.14375	-72.625
2.0175	-10.25625	-67.59375
2.02	-10.35	-56.5
2.0225	-10.42344	-42.3125
2.025	-10.47656	-33.5625
2.0275	-10.5125	-35.3125
2.03	-10.52969	-40.75
2.0325	-10.525	-42.78125
2.035	-10.50781	-43.5625
2.0375	-10.47813	-45.3125
2.04	-10.43281	-45.46875
2.0425	-10.37031	-36.8125
2.045	-10.29063	-20.9375
2.0475	-10.19063	-18.375
2.05	-10.07188	-36.375
2.0525	-9.939063	-52.84375
2.055	-9.796875	-51.75
2.0575	-9.645313	-41.625
2.06	-9.485938	-32.5
2.0625	-9.31875	-29.15625
2.065	-9.145313	-32.5
2.0675	-8.9625	-38
2.07	-8.773438	-40.28125
2.0725	-8.576562	-36.625
2.075	-8.370313	-28.6875
2.0775	-8.164062	-23.59375
2.08	-7.964063	-23.5
2.0825	-7.776563	-21.59375
2.085	-7.604688	-17.71875
2.0875	-7.451563	-18.625
2.09	-7.31875	-23.59375
2.0925	-7.203125	-25.15625
2.095	-7.096875	-19.0625
2.0975	-6.985938	-10.8125
2.1	-6.871875	-13.21875
2.1025	-6.754688	-27.25
2.105	-6.64375	-37.96875
2.1075	-6.540625	-38.03125
2.11	-6.440625	-34.21875
2.1125	-6.328125	-30.40625
2.115	-6.185938	-23.28125
2.1175	-6.017188	-13.90625
2.12	-5.83125	-11.90625
2.1225	-5.642188	-20.40625
2.125	-5.457813	-28.53125
2.1275	-5.278125	-26.125
2.13	-5.10625	-20.46875
2.1325	-4.953125	-23.03125
2.135	-4.821875	-27.75
2.1375	-4.71875	-27.84375
2.14	-4.6375	-29.5625
2.1425	-4.567188	-31.1875
2.145	-4.498438	-22.40625
2.1475	-4.434375	-6.1875
2.15	-4.382812	5.40625
2.1525	-4.354687	5.96875
2.155	-4.35	-1.53125
2.1575	-4.360938	-6.90625
2.16	-4.370312	-4.65625
2.1625	-4.36875	1.125
2.165	-4.35	4.46875
2.1675	-4.320312	3.375
2.17	-4.28125	4.09375
2.1725	-4.232813	6.0625
2.175	-4.164062	0.34375
2.1775	-4.06875	-10.75
2.18	-3.95	-12.3125
2.1825	-3.817188	0.59375
2.185	-3.678125	17.78125
2.1875	-3.539062	32.09375
2.19	-3.409375	41.21875
2.1925	-3.292188	45.09375
2.195	-3.192188	47.5
2.1975	-3.107813	56
2.2	-3.039062	64.4375
2.2025	-2.9875	60.5
2.205	-2.951563	50.34375
2.2075	-2.9375	48.59375
2.21	-2.94375	56.75
2.2125	-2.975	64.78125
2.215	-3.029688	64.78125
2.2175	-3.098438	57.25
2.22	-3.173438	51.375
2.2225	-3.246875	49.25
2.225	-3.314063	42.625
2.2275	-3.373438	27.4375
2.23	-3.41875	10.0625
2.2325	-3.445312	1.25
2.235	-3.453125	1.875
2.2375	-3.448438	4.21875
2.24	-3.432813	3.46875
2.2425	-3.403125	-2.125
2.245	-3.360938	-12.34375
2.2475	-3.307813	-18.9375
2.25	-3.251563	-17.0625
2.2525	-3.203125	-11.84375
2.255	-3.173438	-10.09375
2.2575	-3.159375	-17.78125
2.26	-3.15625	-30.90625
2.2625	-3.15625	-37.3125
2.265	-3.153125	-34.96875
2.2675	-3.15	-31.09375
2.27	-3.14375	-26.15625
2.2725	-3.142188	-19.59375
2.275	-3.14375	-18.375
2.2775	-3.153125	-29.1875
2.28	-3.1625	-48.03125
2.2825	-3.167188	-63.84375
2.285	-3.165625	-68.875
2.2875	-3.164062	-57.5
2.29	-3.164062	-27.3125
2.2925	-3.165625	25.28125
2.295	-3.16875	104.3438
2.2975	-3.16875	211.3125
2.3	-3.160938	347.9688
2.3025	-3.139063	507.4688
2.305	-3.1	664.8125
2.3075	-3.0375	783.0312
2.31	-2.946875	842.0938
2.3125	-2.826563	853.8438
2.315	-2.676563	838.2812
2.3175	-2.507812	793.5
2.32	-2.339063	711.0312
2.3225	-2.185938	595.8125
2.325	-2.067188	455.0312
2.3275	-1.99375	307.375
2.33	-1.9625	184
2.3325	-1.96875	98.40625
2.335	-2	41.0625
2.3375	-2.045313	3.9375
2.34	-2.089063	-16.9375
2.3425	-2.121875	-30.1875
2.345	-2.142187	-39.8125
2.3475	-2.153125	-45.5
2.35	-2.15	-49.6875
2.3525	-2.132812	-55.6875
2.355	-2.092188	-63.53125
2.3575	-2.025	-70.15625
2.36	-1.928125	-73.0625
2.3625	-1.803125	-74.71875
2.365	-1.657813	-79.9375
2.3675	-1.504688	-85.78125
2.37	-1.364063	-84.90625
2.3725	-1.25625	-77.75
2.375	-1.196875	-75.25
2.3775	-1.1875	-81.3125
2.38	-1.223438	-85.75
2.3825	-1.29375	-80.71875
2.385	-1.390625	-72.625
2.3875	-1.50625	-69.625
2.39	-1.634375	-69.25
2.3925	-1.760938	-68.125
2.395	-1.873438	-69.65625
2.3975	-1.960938	-75.625
2.4	-2.020313	-81.125
2.4025	-2.053125	-82.78125
2.405	-2.070312	-82.15625
2.4075	-2.065625	-79.6875
2.41	-2.035938	-68.90625
2.4125	-1.976562	-52.4375
2.415	-1.895313	-46.96875
2.4175	-1.803125	-53.84375
2.42	-1.717188	-59
2.4225	-1.648438	-60.6875
2.425	-1.595313	-64.53125
2.4275	-1.5625	-65.5
2.43	-1.545313	-58.21875
2.4325	-1.551563	-45.625
2.435	-1.5875	-34.9375
2.4375	-1.659375	-30
2.44	-1.775	-30.0625
2.4425	-1.935938	-32.84375
2.445	-2.132812	-35.84375
2.4475	-2.345312	-37.53125
2.45	-2.5625	-33.875
2.4525	-2.771875	-24.6875
2.455	-2.965625	-19.75
2.4575	-3.134375	-23.15625
2.46	-3.271875	-25.5625
2.4625	-3.36875	-24.125
2.465	-3.41875	-20.15625
2.4675	-3.423438	-11.125
2.47	-3.38125	-3.03125
2.4725	-3.290625	-6.03125
2.475	-3.153125	-16.28125
2.4775	-2.959375	-21.84375
2.48	-2.69375	-15.71875
2.4825	-2.34375	0.6875
2.485	-1.890625	12.9375
2.4875	-1.326563	10.34375
2.49	-0.640625	-1.78125
2.4925	0.1796875	-10.65625
2.495	1.145312	-7.96875
2.4975	2.276563	2.75
2.5	3.585938	14.75
2.5025	5.082813	27.65625
2.505	6.765625	37.90625
2.5075	8.629688	35.84375
2.51	10.65156	25.84375
2.5125	12.80938	20.9375
2.515	15.08594	25.25
2.5175	17.47344	33.59375
2.52	19.9625	38.15625
2.5225	22.52969	40.09375
2.525	25.13594	45.6875
2.5275	27.7375	54.5
2.53	30.2875	63.34375
2.5325	32.7375	72.28125
2.535	35.03281	79.6875
2.5375	37.09844	85.21875
2.54	38.86406	85.6875
2.5425	40.25313	75.78125
2.545	41.21875	64.8125
2.5475	41.72344	64.65625
2.55	41.74844	70.8125
2.5525	41.30781	76.0625
2.555	40.44531	84
2.5575	39.21719	97.5625
2.56	37.68281	111.7188
2.5625	35.89688	118.6875
2.565	33.92031	115.625
2.5675	31.80625	105.5312
2.57	29.6	99.9375
2.5725	27.33594	107.6562
2.575	25.05313	120.75
2.5775	22.79375	129.8125
2.58	20.59375	135.9688
2.5825	18.47969	142.7812
2.585	16.46875	148.5938
2.5875	14.58438	148.125
2.59	12.84531	140.7812
2.5925	11.26719	134.7812
2.595	9.85625	132.9688
2.5975	8.6125	131.1875
2.6	7.534375	128.4062
2.6025	6.621875	123.4688
2.605	5.871875	116
2.6075	5.282813	109.4375
2.61	4.854688	103.875
2.6125	4.58125	93.5
2.615	4.451563	75.1875
2.6175	4.442188	55.15625
2.62	4.534375	41.15625
2.6225	4.707813	35.34375
2.625	4.942188	33.40625
2.6275	5.228125	27.53125
2.63	5.557813	17.3125
2.6325	5.929688	9.59375
2.635	6.346875	8.21875
2.6375	6.795313	11.09375
2.64	7.2625	10.40625
2.6425	7.7375	2.375
2.645	8.204688	-3.21875
2.6475	8.651563	0.21875
2.65	9.065625	3.34375
2.6525	9.446875	-1.96875
2.655	9.792188	-13.53125
2.6575	10.09844	-26.5
2.66	10.36719	-35.46875
2.6625	10.59531	-32.96875
2.665	10.775	-20.28125
2.6675	10.9	-9.78125
2.67	10.95625	-9.0625
2.6725	10.9375	-18.90625
2.675	10.83125	-33.75
2.6775	10.625	-38.3125
2.68	10.30938	-25.96875
2.6825	9.876563	-11.9375
2.685	9.31875	-9.625
2.6875	8.635938	-15.8125
2.69	7.823438	-20.8125
2.6925	6.88125	-19.8125
2.695	5.807813	-13.96875
2.6975	4.60625	-5.125
2.7	3.289062	2.5
2.7025	1.867188	4.28125
2.705	0.3578125	0.6875
2.7075	-1.221875	-4.90625
2.71	-2.85625	-10.625
2.7125	-4.525	-11.90625
2.715	-6.220313	-2.09375
2.7175	-7.923438	13.84375
2.72	-9.6125	22.59375
2.7225	-11.26562	20.21875
2.725	-12.85	14.65625
2.7275	-14.33594	11.03125
2.73	-15.69219	9.59375
2.7325	-16.89062	10.90625
2.735	-17.91719	14.03125
2.7375	-18.75781	18.90625
2.74	-19.40156	27.5
2.7425	-19.84688	38.8125
2.745	-20.09219	47.4375
2.7475	-20.14062	47.1875
2.75	-20	35.40625
2.7525	-19.69375	20.78125
2.755	-19.24219	13.6875
2.7575	-18.67344	12.90625
2.76	-18.00938	14.5
2.7625	-17.26719	21
2.765	-16.45938	31.25
2.7675	-15.6	39
2.77	-14.7	46.46875
2.7725	-13.77813	52.1875
2.775	-12.84844	44.46875
2.7775	-11.92031	27.09375
2.78	-10.9875	21.1875
2.7825	-10.04531	32.9375
2.785	-9.103125	47.9375
2.7875	-8.18125	56.1875
2.79	-7.303125	56.6875
2.7925	-6.476562	51.96875
2.795	-5.70625	44.875
2.7975	-4.998438	36.78125
2.8	-4.357813	28.875
2.8025	-3.785938	27.375
2.805	-3.284375	38.21875
2.8075	-2.85625	53.875
2.81	-2.496875	58.09375
2.8125	-2.204687	46.0625
2.815	-1.976562	31.09375
2.8175	-1.814063	25.09375
2.82	-1.720313	25.53125
2.8225	-1.696875	28.3125
2.825	-1.753125	34.875
2.8275	-1.89375	42.46875
2.83	-2.109375	48.84375
2.8325	-2.385938	55.84375
2.835	-2.698438	60.15625
2.8375	-3.03125	59.46875
2.84	-3.371875	58.25
2.8425	-3.715625	56.09375
2.845	-4.05625	51
2.8475	-4.3875	51.5
2.85	-4.709375	60.9375
2.8525	-5.021875	70.375
2.855	-5.329688	69.5625
2.8575	-5.63125	55.96875
2.86	-5.923438	41.875
2.8625	-6.2	42.1875
2.865	-6.454688	53.40625
2.8675	-6.684375	66
2.87	-6.892188	77.59375
2.8725	-7.08125	79.78125
2.875	-7.251563	67.3125
2.8775	-7.407813	52.21875
2.88	-7.55	45.875
2.8825	-7.675	47.53125
2.885	-7.782813	54.625
2.8875	-7.86875	64.4375
2.89	-7.932813	71.9375
2.8925	-7.982813	73.96875
2.895	-8.028125	68.59375
2.8975	-8.071875	57.21875
2.9	-8.115625	48.53125
2.9025	-8.154687	48.8125
2.905	-8.189063	52.96875
2.9075	-8.21875	56.09375
2.91	-8.2375	60.25
2.9125	-8.234375	64.8125
2.915	-8.201562	63.375
2.9175	-8.132812	53.71875
2.92	-8.035938	41.28125
2.9225	-7.910938	34.5625
2.925	-7.767188	40.21875
2.9275	-7.60625	56.8125
2.93	-7.43125	74.78125
2.9325	-7.242188	82.78125
2.935	-7.042188	78.40625
2.9375	-6.842188	66.0625
2.94	-6.646875	51.53125
2.9425	-6.460938	42.65625
2.945	-6.28125	41.75
2.9475	-6.109375	44.75
2.95	-5.951563	51.09375
2.9525	-5.810938	59.875
2.955	-5.690625	63.25
2.9575	-5.582813	60.46875
2.96	-5.4875	59.375
2.9625	-5.398438	64.25
2.965	-5.310938	71.4375
2.9675	-5.225	75.34375
2.97	-5.145313	76.96875
2.9725	-5.071875	74.75
2.975	-5	63.28125
2.9775	-4.920313	49.875
2.98	-4.826563	48.875
2.9825	-4.723438	58.59375
2.985	-4.615625	65.1875
2.9875	-4.50625	63.6875
2.99	-4.390625	63
2.9925	-4.26875	70.0625
2.995	-4.146875	82.34375
2.9975	-4.023438	93.4375
3	-3.903125	98.0625
3.0025	-3.784375	92.625
3.005	-3.670313	81.1875
3.0075	-3.5625	75.34375
3.01	-3.459375	77.71875
3.0125	-3.3625	77.625
3.015	-3.276563	71.1875
3.0175	-3.207813	68.03125
3.02	-3.154688	74.21875
3.0225	-3.117188	85.90625
3.025	-3.090625	95.1875
3.0275	-3.075	100.9688
3.03	-3.0625	105.2812
3.0325	-3.039062	107.8438
3.035	-3	110.5
3.0375	-2.942188	114.1562
3.04	-2.870313	115.5625
3.0425	-2.792188	116.6875
3.045	-2.7125	120.7188
3.0475	-2.639063	122.1875
3.05	-2.58125	114.3125
3.0525	-2.551563	99.125
3.055	-2.554688	86.78125
3.0575	-2.596875	82.03125
3.06	-2.670313	80.03125
3.0625	-2.765625	77.90625
3.065	-2.864063	79.5
3.0675	-2.951563	81.59375
3.07	-3.021875	75.84375
3.0725	-3.065625	65.875
3.075	-3.084375	60.4375
3.0775	-3.076563	56.25
3.08	-3.054688	50.75
3.0825	-3.028125	51.1875
3.085	-3.007812	58.34375
3.0875	-2.99375	65.625
3.09	-2.985938	69.625
3.0925	-2.976562	68.21875
3.095	-2.965625	61.40625
3.0975	-2.95	57.09375
3.1	-2.926563	64.3125
3.1025	-2.889063	73.40625
3.105	-2.835938	68.6875
3.1075	-2.7625	54.8125
3.11	-2.678125	45.0625
3.1125	-2.590625	37.96875
3.115	-2.509375	28.09375
3.1175	-2.44375	21.6875
3.12	-2.401563	27.5625
3.1225	-2.382812	52.15625
3.125	-2.389063	102.5938
3.1275	-2.409375	190.3438
3.13	-2.432813	320.2188
3.1325	-2.451563	474.9688
3.135	-2.4625	622.5938
3.1375	-2.46875	737.4062
3.14	-2.475	808.0938
3.1425	-2.482813	837.4375
3.145	-2.490625	834.25
3.1475	-2.495313	800.4375
3.15	-2.49375	731.9688
3.1525	-2.492188	634.9062
3.155	-2.490625	521.5625
3.1575	-2.482813	396.6562
3.16	-2.460938	272.9688
3.1625	-2.425	175.5
3.165	-2.373438	116.8125
3.1675	-2.320312	88.59375
3.17	-2.278125	75.8125
3.1725	-2.25625	65.125
3.175	-2.246875	51.84375
3.1775	-2.245313	40.625
3.18	-2.245313	37.5625
3.1825	-2.24375	41.0625
3.185	-2.235937	40.90625
3.1875	-2.221875	33.71875
3.19	-2.198438	21.78125
3.1925	-2.159375	6.34375
3.195	-2.104688	-3.5
3.1975	-2.034375	1.21875
3.2	-1.957813	13.84375
3.2025	-1.889063	19.53125
3.205	-1.839063	13.78125
3.2075	-1.817188	6.28125
3.21	-1.821875	4.84375
3.2125	-1.840625	3.875
3.215	-1.86875	-0.875
3.2175	-1.903125	-6.5625
3.22	-1.9375	-12.5625
3.2225	-1.975	-19.28125
3.225	-2.0125	-23.4375
3.2275	-2.045313	-20.3125
3.23	-2.075	-12.15625
3.2325	-2.098438	-7.1875
3.235	-2.11875	-10.375
3.2375	-2.134375	-18.625
3.24	-2.148438	-25.8125
3.2425	-2.160938	-26.5625
3.245	-2.173437	-19.21875
3.2475	-2.184375	-11.28125
3.25	-2.185938	-9.875
3.2525	-2.178125	-11.125
3.255	-2.157812	-9.75
3.2575	-2.135938	-6.375
3.26	-2.123438	-2.3125
3.2625	-2.125	-1.59375
3.265	-2.145313	-7.40625
3.2675	-2.190625	-15.28125
3.27	-2.257812	-19.5
3.2725	-2.345312	-19.4375
3.275	-2.44375	-18.125
3.2775	-2.54375	-15.34375
3.28	-2.634375	-9.03125
3.2825	-2.710938	-2.34375
3.285	-2.778125	-0.9375
3.2875	-2.84375	-0.1875
3.29	-2.907813	7.75
3.2925	-2.967188	17.5625
3.295	-3.014063	22.28125
3.2975	-3.045313	23.625
3.3	-3.059375	24.625
3.3025	-3.054688	22.8125
3.305	-3.032813	12.1875
3.3075	-2.995313	-6.34375
3.31	-2.935938	-17.46875
3.3125	-2.8375	-10.78125
3.315	-2.68125	3.59375
3.3175	-2.45	14.09375
3.32	-2.129688	19.09375
3.3225	-1.696875	24.1875
3.325	-1.11875	33
3.3275	-0.3640625	40.84375
3.33	0.5953125	44.28125
3.3325	1.770313	45
3.335	3.15625	44.65625
3.3375	4.748438	44.53125
3.34	6.5375	46.09375
3.3425	8.503125	50.75
3.345	10.6125	61.3125
3.3475	12.83594	75.71875
3.35	15.16094	82.3125
3.3525	17.58438	74.9375
3.355	20.09375	63.90625
3.3575	22.65938	63.4375
3.36	25.23906	74.5
3.3625	27.77969	88
3.365	30.23125	99.34375
3.3675	32.54219	109.625
3.37	34.65938	114.4062
3.3725	36.5125	108.8125
3.375	38.04375	103.875
3.3775	39.20156	112.2188
3.38	39.95312	126.625
3.3825	40.27031	133.0312
3.385	40.13281	131.8125
3.3875	39.53906	131.7812
3.39	38.52344	134.4062
3.3925	37.15469	137.5625
3.395	35.51094	143.4375
3.3975	33.66406	153.0312
3.4	31.66719	165.0312
3.4025	29.55938	178.0938
3.405	27.37344	186.7812
3.4075	25.13906	185.6875
3.41	22.89688	178.2188
3.4125	20.68438	173.75
3.415	18.53906	177.625
3.4175	16.49375	183.9375
3.42	14.56719	183.3125
3.4225	12.77031	178.8438
3.425	11.11563	180.4062
3.4275	9.6125	187.4375
3.43	8.273438	187.1875
3.4325	7.098438	172.3125
3.435	6.092188	152.3125
3.4375	5.25	138.4688
3.44	4.5625	132.6875
3.4425	4.020313	132.5312
3.445	3.614063	130.5625
3.4475	3.339063	119.9375
3.45	3.189063	103.8125
3.4525	3.15625	89.78125
3.455	3.228125	79.9375
3.4575	3.39375	72.59375
3.46	3.640625	67.71875
3.4625	3.95625	65.46875
3.465	4.332813	62.21875
3.4675	4.765625	50.6875
3.47	5.25	35.375
3.4725	5.779688	28.1875
3.475	6.346875	31.46875
3.4775	6.940625	40.15625
3.48	7.539062	45.59375
3.4825	8.125	40.96875
3.485	8.68125	31.75
3.4875	9.1875	30.40625
3.49	9.634375	37.71875
3.4925	10.01562	47.5
3.495	10.32969	51.90625
3.4975	10.58125	41.40625
3.5	10.7625	21.4375
3.5025	10.86563	5.5
3.505	10.87656	-0.59375
3.5075	10.78438	2
3.51	10.58438	8.3125
3.5125	10.27031	10.8125
3.515	9.835938	9
3.5175	9.279687	6.5625
3.52	8.604688	5.53125
3.5225	7.814063	8.53125
3.525	6.914062	12.6875
3.5275	5.90625	15.09375
3.53	4.789062	20.375
3.5325	3.567188	27.8125
3.535	2.240625	30.09375
3.5375	0.821875	28.28125
3.54	-0.678125	27.78125
3.5425	-2.251562	30.84375
3.545	-3.8875	40.53125
3.5475	-5.573438	52.8125
3.55	-7.296875	56.90625
3.5525	-9.039062	50.78125
3.555	-10.77656	42.875
3.5575	-12.47188	36.71875
3.56	-14.08281	30.4375
3.5625	-15.57031	27.1875
3.565	-16.89844	27.8125
3.5675	-18.04688	29.5
3.57	-19.00156	32.8125
3.5725	-19.75781	38.53125
3.575	-20.31094	42.375
3.5775	-20.65938	42.75
3.58	-20.80156	41.09375
3.5825	-20.74219	38
3.585	-20.49688	33.59375
3.5875	-20.09219	33.8125
3.59	-19.55625	46.5
3.5925	-18.91094	63.46875
3.595	-18.18125	66.84375
3.5975	-17.3875	53.3125
3.6	-16.55156	36.6875
3.6025	-15.69375	29.75
3.605	-14.81719	31.0625
3.6075	-13.93594	28.96875
3.61	-13.05156	24.15625
3.6125	-12.16875	29.125
3.615	-11.29375	40.09375
3.6175	-10.42813	42.40625
3.62	-9.578125	32.1875
3.6225	-8.75	16.8125
3.625	-7.95625	5.65625
3.6275	-7.2	3.53125
3.63	-6.482813	5.59375
3.6325	-5.809375	6.375
3.635	-5.19375	7.6875
3.6375	-4.651562	11.75
3.64	-4.196875	13.9375
3.6425	-3.828125	7.9375
3.645	-3.539062	-4.1875
3.6475	-3.310938	-13.8125
3.65	-3.132812	-15.5
3.6525	-3	-8.40625
3.655	-2.914062	-1.53125
3.6575	-2.88125	-6.34375
3.66	-2.896875	-17
3.6625	-2.957813	-21.15625
3.665	-3.051563	-18.375
3.6675	-3.18125	-15.15625
3.67	-3.354688	-14.59375
3.6725	-3.576563	-19.25
3.675	-3.8375	-26.96875
3.6775	-4.123438	-28.46875
3.68	-4.415625	-21.5
3.6825	-4.704688	-16.59375
3.685	-4.985938	-19.46875
3.6875	-5.257812	-23.28125
3.69	-5.517188	-27.09375
3.6925	-5.760938	-32.96875
3.695	-5.98125	-35.875
3.6975	-6.185938	-36.28125
3.7	-6.378125	-41
3.7025	-6.5625	-47.53125
3.705	-6.735938	-50.375
3.7075	-6.898438	-53.5
3.71	-7.048438	-58.125
3.7125	-7.18125	-56.65625
3.715	-7.298438	-49.1875
3.7175	-7.404688	-45.75
3.72	-7.501563	-50.375
3.7225	-7.592188	-53.71875
3.725	-7.670313	-47.59375
3.7275	-7.725	-42.375
3.73	-7.751563	-49
3.7325	-7.751563	-59.90625
3.735	-7.728125	-65.34375
3.7375	-7.692188	-67.34375
3.74	-7.648438	-65.34375
3.7425	-7.6	-56.46875
3.745	-7.55	-45.125
3.7475	-7.49375	-35.9375
3.75	-7.439063	-35.28125
3.7525	-7.3875	-46.9375
3.755	-7.329688	-60.65625
3.7575	-7.251563	-65.5625
3.76	-7.1375	-62.03125
3.7625	-6.978125	-55.28125
3.765	-6.782813	-51.59375
3.7675	-6.5625	-55.25
3.77	-6.329688	-61.84375
3.7725	-6.096875	-64.875
3.775	-5.870313	-62.40625
3.7775	-5.659375	-56.53125
3.78	-5.470313	-52.375
3.7825	-5.296875	-49.96875
3.785	-5.145313	-50.125
3.7875	-5.014063	-54.40625
3.79	-4.903125	-55.5
3.7925	-4.807813	-47.625
3.795	-4.721875	-40.75
3.7975	-4.64375	-46.1875
3.8	-4.575	-57.4375
3.8025	-4.520313	-63.59375
3.805	-4.478125	-63.03125
3.8075	-4.45	-57.0625
3.81	-4.432812	-46.03125
3.8125	-4.417187	-35.84375
3.815	-4.392188	-32.71875
3.8175	-4.35	-37.875
3.82	-4.296875	-47.15625
3.8225	-4.229687	-46.28125
3.825	-4.145313	-32.40625
3.8275	-4.042187	-25.84375
3.83	-3.923438	-29.28125
3.8325	-3.789062	-22
3.835	-3.64375	-5.625
3.8375	-3.49375	0
3.84	-3.35	-6.78125
3.8425	-3.225	-10.1875
3.845	-3.126563	-1.53125
3.8475	-3.05	10.59375
3.85	-2.99375	13.875
3.8525	-2.957813	10.53125
3.855	-2.9375	11
3.8575	-2.926563	17.8125
3.86	-2.921875	25.6875
3.8625	-2.921875	29.4375
3.865	-2.928125	25.15625
3.8675	-2.94375	8.78125
3.87	-2.96875	-15.5625
3.8725	-3.003125	-35.5625
3.875	-3.042188	-44.8125
3.8775	-3.08125	-46.625
3.88	-3.120313	-48.46875
3.8825	-3.151563	-53.96875
3.885	-3.171875	-59.4375
3.8875	-3.176563	-59.5625
3.89	-3.160938	-53.6875
3.8925	-3.121875	-44.15625
3.895	-3.059375	-36.4375
3.8975	-2.976562	-39.4375
3.9	-2.878125	-51.4375
3.9025	-2.76875	-62.03125
3.905	-2.654688	-71.5
3.9075	-2.5375	-79
3.91	-2.417188	-71.75
3.9125	-2.289062	-54.6875
3.915	-2.148438	-43.9375
3.9175	-2	-39.0625
3.92	-1.853125	-44.59375
3.9225	-1.720313	-69.5625
3.925	-1.615625	-101.2812
3.9275	-1.55	-120.6562
3.93	-1.528125	-117.9375
3.9325	-1.548438	-85.78125
3.935	-1.604688	-28.34375
3.9375	-1.690625	42.5
3.94	-1.790625	126.5938
3.9425	-1.89375	236.625
3.945	-1.984375	374.9688
3.9475	-2.048437	516.2188
3.95	-2.079687	624.4062
3.9525	-2.075	683.5
3.955	-2.04375	703.6875
3.9575	-2	699.1875
3.96	-1.95625	671.125
3.9625	-1.909375	612.5
3.965	-1.859375	524.4688
3.9675	-1.807813	413.5
3.97	-1.753125	286.2812
3.9725	-1.704688	162.75
3.975	-1.665625	67.15625
3.9775	-1.639063	3.9375
3.98	-1.615625	-33.5
3.9825	-1.592188	-46.40625
3.985	-1.5625	-45.25
3.9875	-1.529688	-47.46875
3.99	-1.501563	-54.09375
3.9925	-1.48125	-57.6875
3.995	-1.473438	-62.21875
3.9975	-1.476562	-72.1875
4	-1.489063	-75.09375
4.0025	-1.50625	-70.21875
4.005	-1.525	-78.0625
4.0075	-1.54375	-97.65625
4.01	-1.5625	-109
4.0125	-1.579688	-109.1562
4.015	-1.6	-102.0938
4.0175	-1.629688	-91.8125
4.02	-1.679688	-91.46875
4.0225	-1.746875	-102.0312
4.025	-1.832813	-109.9375
4.0275	-1.934375	-109.8125
4.03	-2.042188	-103.9375
4.0325	-2.135938	-94.09375
4.035	-2.201563	-85.15625
4.0375	-2.232813	-87.59375
4.04	-2.234375	-103.3438
4.0425	-2.2125	-113.8125
4.045	-2.165625	-107.3438
4.0475	-2.092188	-95.875
4.05	-1.996875	-91.28125
4.0525	-1.8875	-94.53125
4.055	-1.779688	-102.0312
4.0575	-1.679688	-104.8438
4.06	-1.6	-97
4.0625	-1.55	-83.96875
4.065	-1.535938	-72.15625
4.0675	-1.5625	-66.53125
4.07	-1.63125	-69.03125
4.0725	-1.740625	-75.21875
4.075	-1.882812	-77.46875
4.0775	-2.039062	-72.84375
4.08	-2.189062	-69.53125
4.0825	-2.320312	-75.53125
4.085	-2.429688	-82.6875
4.0875	-2.523438	-79.09375
4.09	-2.60625	-72.5
4.0925	-2.684375	-73.78125
4.095	-2.754688	-77.03125
4.0975	-2.814063	-74.90625
4.1	-2.867188	-66.375
4.1025	-2.917188	-54.4375
4.105	-2.970313	-45.1875
4.1075	-3.023438	-39.875
4.11	-3.071875	-34.90625
4.1125	-3.101562	-28.90625
4.115	-3.1	-22.09375
4.1175	-3.059375	-22.71875
4.12	-2.960938	-38.34375
4.1225	-2.798438	-55.0625
4.125	-2.557813	-56.40625
4.1275	-2.220312	-46.6875
4.13	-1.770313	-36.96875
4.1325	-1.192187	-29.6875
4.135	-0.459375	-24.4375
4.1375	0.4390625	-21.3125
4.14	1.514063	-16.625
4.1425	2.779688	-11.75
4.145	4.246875	-14.53125
4.1475	5.923438	-22.375
4.15	7.80625	-24.59375
4.1525	9.875	-21.46875
4.155	12.10156	-16.84375
4.1575	14.45938	-5.6875
4.16	16.9375	11.53125
4.1625	19.52344	21.5
4.165	22.19688	18.03125
4.1675	24.91563	10.8125
4.17	27.62344	7.9375
4.1725	30.25313	10.28125
4.175	32.75156	16.40625
4.1775	35.06563	23.40625
4.18	37.14219	31.71875
4.1825	38.92031	41.6875
4.185	40.34375	50.25
4.1875	41.36875	57.28125
4.19	41.95156	60.71875
4.1925	42.06563	55.5
4.195	41.70156	48.8125
4.1975	40.87813	52.9375
4.2	39.65	66.3125
4.2025	38.0875	80.46875
4.205	36.26562	90.53125
4.2075	34.24531	96.25
4.21	32.07812	102.1875
4.2125	29.80625	109.9062
4.215	27.47344	115.2188
4.2175	25.12344	118.25
4.22	22.79531	121.2812
4.2225	20.525	119.625
4.225	18.35	109.5312
4.2275	16.29688	95.71875
4.23	14.39219	86.8125
4.2325	12.65313	85.21875
4.235	11.08438	85.15625
4.2375	9.6875	84.0625
4.24	8.460938	82.96875
4.2425	7.4	83.03125
4.245	6.503125	84.21875
4.2475	5.767188	84.9375
4.25	5.184375	83.71875
4.2525	4.751563	78.65625
4.255	4.45625	65.375
4.2575	4.284375	44.9375
4.26	4.226562	29.375
4.2625	4.275	25.34375
4.265	4.425	22.34375
4.2675	4.660938	9.59375
4.27	4.973438	-7.46875
4.2725	5.35	-18.90625
4.275	5.785938	-25.09375
4.2775	6.276563	-31.3125
4.28	6.817188	-38.34375
4.2825	7.398438	-42.84375
4.285	8.015625	-44.59375
4.2875	8.659375	-45.90625
4.29	9.31875	-47.125
4.2925	9.98125	-49.71875
4.295	10.62969	-54.09375
4.2975	11.24688	-54.8125
4.3	11.8125	-50.4375
4.3025	12.30781	-47.40625
4.305	12.71719	-47.1875
4.3075	13.03438	-47.84375
4.31	13.25469	-51.40625
4.3125	13.38125	-58.15625
4.315	13.4125	-64
4.3175	13.34219	-68.28125
4.32	13.16719	-74.0625
4.3225	12.87813	-78.0625
4.325	12.47344	-72.6875
4.3275	11.94844	-58.9375
4.33	11.3	-46.0625
4.3325	10.53125	-41.125
4.335	9.653125	-50.25
4.3375	8.673438	-69.03125
4.34	7.604688	-81
4.3425	6.453125	-80.75
4.345	5.229688	-78.40625
4.3475	3.939063	-83.875
4.35	2.585938	-93.21875
4.3525	1.167188	-94.25
4.355	-0.325	-85.40625
4.3575	-1.8875	-77.125
4.36	-3.517188	-73.6875
4.3625	-5.207813	-73.0625
4.365	-6.948438	-75.21875
4.3675	-8.721875	-75.1875
4.37	-10.5	-65.40625
4.3725	-12.25313	-53.59375
4.375	-13.94844	-59.5
4.3775	-15.55	-79.78125
4.38	-17.02344	-90.34375
4.3825	-18.33906	-85.09375
4.385	-19.47813	-74.34375
4.3875	-20.425	-64
4.39	-21.16719	-60.21875
4.3925	-21.70625	-67.96875
4.395	-22.0375	-78.5
4.3975	-22.16563	-80.15625
4.4	-22.10156	-75.9375
4.4025	-21.86875	-77.25
4.405	-21.49219	-84.625
4.4075	-20.99219	-89.96875
4.41	-20.38281	-88.53125
4.4125	-19.67656	-79.59375
4.415	-18.8875	-69.59375
4.4175	-18.03594	-69.25
4.42	-17.14375	-75.125
4.4225	-16.225	-74.90625
4.425	-15.29063	-69.0625
4.4275	-14.34531	-62.09375
4.43	-13.39688	-56.59375
4.4325	-12.45625	-57.125
4.435	-11.5375	-62.34375
4.4375	-10.65781	-66.625
4.44	-9.83125	-69.46875
4.4425	-9.0625	-73.4375
4.445	-8.360938	-78.75
4.4475	-7.729688	-83.09375
4.45	-7.175	-85.03125
4.4525	-6.69375	-87.46875
4.455	-6.284375	-91.78125
4.4575	-5.940625	-93.71875
4.46	-5.65	-93.6875
4.4625	-5.40625	-96.5
4.465	-5.198438	-102.1875
4.4675	-5.023438	-105.0312
4.47	-4.88125	-101
4.4725	-4.778125	-94.84375
4.475	-4.714062	-95.75
4.4775	-4.679688	-101.1562
4.48	-4.675	-100.6562
4.4825	-4.704688	-95.46875
4.485	-4.76875	-92.65625
4.4875	-4.867188	-91.46875
4.49	-4.998438	-89.4375
4.4925	-5.151563	-89.09375
4.495	-5.321875	-90.3125
4.4975	-5.5	-91.6875
4.5	-5.678125	-94.71875
4.5025	-5.854688	-101.375
4.505	-6.025	-107.9062
4.5075	-6.176563	-107.75
4.51	-6.3	-100.4375
4.5125	-6.398438	-90.8125
4.515	-6.482813	-85.6875
4.5175	-6.557813	-89.09375
4.52	-6.635938	-100.75
4.5225	-6.721875	-112.1562
4.525	-6.821875	-113.875
4.5275	-6.935938	-105.5625
4.53	-7.057813	-93.625
4.5325	-7.178125	-85.71875
4.535	-7.289062	-83.9375
4.5375	-7.385938	-85.9375
4.54	-7.46875	-93.53125
4.5425	-7.532813	-104.6875
4.545	-7.573438	-107.7188
4.5475	-7.5875	-101.3438
4.55	-7.575	-96.65625
4.5525	-7.553125	-94.59375
4.555	-7.5375	-92.875
4.5575	-7.539062	-94.5625
4.56	-7.551563	-97.71875
4.5625	-7.567188	-99.875
4.565	-7.567188	-98.53125
4.5675	-7.535938	-93.96875
4.57	-7.465625	-93.84375
4.5725	-7.357813	-101.8438
4.575	-7.217188	-108.6875
4.5775	-7.046875	-104.1562
4.58	-6.85625	-88.875
4.5825	-6.651563	-76.96875
4.585	-6.44375	-82.4375
4.5875	-6.24375	-98.40625
4.59	-6.059375	-108.1562
4.5925	-5.892188	-104.0312
4.595	-5.740625	-92.0625
4.5975	-5.598438	-83.59375
4.6	-5.464063	-83.125
4.6025	-5.339063	-86.71875
4.605	-5.226562	-89.9375
4.6075	-5.13125	-91
4.61	-5.060938	-88.375
4.6125	-5.003125	-83.53125
4.615	-4.948438	-79.96875
4.6175	-4.882812	-78.8125
4.62	-4.801563	-79.90625
4.6225	-4.70625	-85.03125
4.625	-4.59375	-91.875
4.6275	-4.464062	-93.71875
4.63	-4.332813	-88.0625
4.6325	-4.207813	-78.46875
4.635	-4.101562	-71.84375
4.6375	-4.021875	-74.65625
4.64	-3.9625	-84.59375
4.6425	-3.9125	-91.3125
4.645	-3.854688	-91.59375
4.6475	-3.770313	-89.65625
4.65	-3.667188	-83.78125
4.6525	-3.55625	-74.40625
4.655	-3.446875	-71.0625
4.6575	-3.348438	-73.90625
4.66	-3.260938	-73.4375
4.6625	-3.1875	-68.9375
4.665	-3.132812	-63.875
4.6675	-3.092188	-62.09375
4.67	-3.064063	-65.59375
4.6725	-3.045313	-70.09375
4.675	-3.035938	-72.4375
4.6775	-3.0375	-69.375
4.68	-3.04375	-55.40625
4.6825	-3.045313	-33.6875
4.685	-3.03125	-17.5625
4.6875	-2.996875	-11.96875
4.69	-2.939063	-12.15625
4.6925	-2.85625	-11.96875
4.695	-2.759375	-10.71875
4.6975	-2.660938	-12.25
4.7	-2.575	-15.6875
4.7025	-2.514063	-19.5625
4.705	-2.479688	-25.84375
4.7075	-2.46875	-36
4.71	-2.470313	-45
4.7125	-2.473438	-48.0625
4.715	-2.471875	-47.84375
4.7175	-2.465625	-49.90625
4.72	-2.45	-55.46875
4.7225	-2.428125	-62.59375
4.725	-2.4	-69.25
4.7275	-2.36875	-72.3125
4.73	-2.339063	-72.21875
4.7325	-2.31875	-72.125
4.735	-2.3125	-71.34375
4.7375	-2.31875	-69
4.74	-2.334375	-67.15625
4.7425	-2.35625	-65.3125
4.745	-2.38125	-64
4.7475	-2.401563	-70.9375
4.75	-2.414062	-83.71875
4.7525	-2.415625	-88.46875
4.755	-2.401563	-81.6875
4.7575	-2.371875	-72.3125
4.76	-2.334375	-68.5625
4.7625	-2.290625	-70.65625
4.765	-2.240625	-77.5625
4.7675	-2.179688	-93.25
4.77	-2.109375	-114.0312
4.7725	-2.04375	-119.5625
4.775	-1.9875	-94.125
4.7775	-1.942188	-34.9375
4.78	-1.90625	61.875
4.7825	-1.88125	197.0938
4.785	-1.864063	355.2188
4.7875	-1.854688	509.75
4.79	-1.85625	635.0312
4.7925	-1.865625	712.0312
4.795	-1.882812	739.3438
4.7975	-1.907813	732.4062
4.8	-1.939063	700.7188
4.8025	-1.970313	639.3125
4.805	-1.992188	549.875
4.8075	-2.003125	444.1875
4.81	-2.001562	328.9688
4.8125	-1.990625	211.3438
4.815	-1.973438	107.625
4.8175	-1.945312	30.5
4.82	-1.90625	-20.28125
4.8225	-1.854688	-50.15625
4.825	-1.79375	-66.34375
4.8275	-1.728125	-74.0625
4.83	-1.6625	-75.25
4.8325	-1.603125	-73.5625
4.835	-1.554688	-77.71875
4.8375	-1.526563	-91.96875
4.84	-1.525	-106.8125
4.8425	-1.545313	-112.9688
4.845	-1.573438	-111.25
4.8475	-1.596875	-105.875
4.85	-1.60625	-100.5938
4.8525	-1.610938	-98.78125
4.855	-1.629688	-98.625
4.8575	-1.671875	-96.96875
4.86	-1.734375	-95.4375
4.8625	-1.804688	-96.625
4.865	-1.870313	-100.5
4.8675	-1.921875	-106.7812
4.87	-1.964063	-114.3125
4.8725	-1.99375	-117.125
4.875	-2.014063	-113.9062
4.8775	-2.014063	-110.8438
4.88	-1.9875	-104.7812
4.8825	-1.932813	-94.78125
4.885	-1.85	-92.21875
4.8875	-1.753125	-99.25
4.89	-1.6625	-104.9375
4.8925	-1.590625	-103.6875
4.895	-1.546875	-98.5
4.8975	-1.53125	-94.34375
4.9	-1.540625	-94.3125
4.9025	-1.575	-98.34375
4.905	-1.639063	-106.125
4.9075	-1.721875	-112.7812
4.91	-1.820312	-110.2812
4.9125	-1.925	-98.75
4.915	-2.028125	-88.46875
4.9175	-2.125	-86.40625
4.92	-2.209375	-87.53125
4.9225	-2.2875	-86.6875
4.925	-2.35625	-84.8125
4.9275	-2.4125	-81.6875
4.93	-2.45625	-78.125
4.9325	-2.489063	-77.75
4.935	-2.514063	-79.625
4.9375	-2.5375	-82.8125
4.94	-2.570312	-87.9375
4.9425	-2.610938	-88.8125
4.945	-2.654688	-82.1875
4.9475	-2.696875	-74.03125
4.95	-2.726562	-69.59375
4.9525	-2.739063	-71.15625
4.955	-2.726562	-75.21875
4.9575	-2.66875	-71.59375
4.96	-2.55	-59.0625
4.9625	-2.35	-48.0625
4.965	-2.048437	-45.59375
4.9675	-1.61875	-50.15625
4.97	-1.035937	-55
4.9725	-0.2734375	-55.9375
4.975	0.69375	-56.71875
4.9775	1.873438	-57.6875
4.98	3.270313	-52.125
4.9825	4.8875	-39.03125
4.985	6.726562	-26.5
4.9875	8.785938	-16.375
4.99	11.0375	-8.75
4.9925	13.4375	-12.28125
4.995	15.94844	-25.5625
4.9975	18.55313	-32.15625
5	21.2375	-27.6875
5.0025	23.98281	-23.8125
5.005	26.75	-22.59375
5.0075	29.49063	-17.78125
5.01	32.14844	-8.15625
5.0125	34.67969	1.71875
5.015	37.02813	6.625
5.0175	39.13281	6.375
5.02	40.92813	7.03125
5.0225	42.35	12.3125
5.025	43.34531	19.40625
5.0275	43.85469	29.03125
5.03	43.83906	42.8125
5.0325	43.29219	52.9375
5.035	42.23906	52.3125
5.0375	40.74531	49.78125
5.04	38.89219	53.21875
5.0425	36.75625	58.15625
5.045	34.42031	59.96875
5.0475	31.96563	60.71875
5.05	29.46094	63.46875
5.0525	26.95781	70.4375
5.055	24.49219	79.78125
5.0575	22.1	87.6875
5.06	19.81406	94.6875
5.0625	17.65469	100.4375
5.065	15.64219	104.1562
5.0675	13.78906	106.2188
5.07	12.11094	106.75
5.0725	10.6125	104.9688
5.075	9.29375	101.3438
5.0775	8.15	95.71875
5.08	7.176563	88.1875
5.0825	6.360938	80.90625
5.085	5.690625	74.90625
5.0875	5.15	70.90625
5.09	4.73125	69.625
5.0925	4.425	70.46875
5.095	4.226562	67.53125
5.0975	4.13125	57.875
5.1	4.142188	48.53125
5.1025	4.257812	39.53125
5.105	4.478125	21.65625
5.1075	4.801563	-2.46875
5.11	5.21875	-19.03125
5.1125	5.721875	-24.34375
5.115	6.303125	-23.03125
5.1175	6.95625	-21.0625
5.12	7.673438	-25.46875
5.1225	8.4375	-36.09375
5.125	9.232812	-45.96875
5.1275	10.03281	-52.03125
5.13	10.81875	-56.125
5.1325	11.57656	-61.28125
5.135	12.29844	-70.21875
5.1375	12.97031	-77.875
5.14	13.57656	-74.53125
5.1425	14.10313	-62.96875
5.145	14.54375	-55.75
5.1475	14.9	-55.125
5.15	15.16719	-55.15625
5.1525	15.34063	-53.90625
5.155	15.41094	-54.1875
5.1575	15.36875	-55.28125
5.16	15.2125	-55.40625
5.1625	14.93906	-57.5
5.165	14.54844	-61.78125
5.1675	14.04063	-65.125
5.17	13.41094	-64.40625
5.1725	12.65625	-61.0625
5.175	11.775	-57.3125
5.1775	10.77031	-50.125
5.18	9.65	-38.59375
5.1825	8.43125	-33.0625
5.185	7.128125	-40.78125
5.1875	5.751563	-52.78125
5.19	4.320312	-57.53125
5.1925	2.854688	-51.84375
5.195	1.371875	-40.1875
5.1975	-0.125	-28.40625
5.2	-1.645313	-22.625
5.2025	-3.20625	-28.75
5.205	-4.821875	-43.28125
5.2075	-6.495313	-52.125
5.21	-8.217187	-49.59375
5.2125	-9.9625	-42.6875
5.215	-11.69531	-37.78125
5.2175	-13.37813	-38.5625
5.22	-14.97656	-45.75
5.2225	-16.45938	-54.53125
5.225	-17.79531	-56.34375
5.2275	-18.95938	-48.28125
5.23	-19.9375	-35.21875
5.2325	-20.71719	-27.1875
5.235	-21.3	-27.65625
5.2375	-21.69844	-32.4375
5.24	-21.92656	-38.03125
5.2425	-21.99844	-40.03125
5.245	-21.91719	-36.84375
5.2475	-21.68594	-32.3125
5.25	-21.30938	-26.53125
5.2525	-20.8	-18.53125
5.255	-20.17031	-17.28125
5.2575	-19.44219	-23.75
5.26	-18.64219	-24.71875
5.2625	-17.78594	-18.21875
5.265	-16.89375	-14.40625
5.2675	-15.97813	-15.375
5.27	-15.04375	-17.71875
5.2725	-14.09688	-20.15625
5.275	-13.13906	-20.25
5.2775	-12.18125	-16.5
5.28	-11.23281	-12.5625
5.2825	-10.30938	-14.59375
5.285	-9.421875	-23.03125
5.2875	-8.59375	-30.3125
5.29	-7.842188	-32.3125
5.2925	-7.18125	-30.71875
5.295	-6.6125	-27.125
5.2975	-6.132812	-22.375
5.3	-5.73125	-19.90625
5.3025	-5.404688	-20.4375
5.305	-5.145313	-21.40625
5.3075	-4.948438	-24.125
5.31	-4.796875	-31.03125
5.3125	-4.676563	-41.5625
5.315	-4.579688	-51.15625
5.3175	-4.507812	-57.28125
5.32	-4.464062	-59.21875
5.3225	-4.45625	-56.40625
5.325	-4.4875	-47.34375
5.3275	-4.55	-34
5.33	-4.635937	-24.34375
5.3325	-4.739063	-23.15625
5.335	-4.854688	-29.5
5.3375	-4.984375	-38.78125
5.34	-5.123438	-43.71875
5.3425	-5.26875	-42.28125
5.345	-5.417188	-41.1875
5.3475	-5.559375	-47.25
5.35	-5.698438	-56.09375
5.3525	-5.832813	-59.8125
5.355	-5.964063	-56.9375
5.3575	-6.1	-51.03125
5.36	-6.239063	-44.4375
5.3625	-6.390625	-36.65625
5.365	-6.55625	-31.1875
5.3675	-6.734375	-34.46875
5.37	-6.925	-42.59375
5.3725	-7.117188	-41.6875
5.375	-7.3	-33.6875
5.3775	-7.459375	-31.9375
5.38	-7.589063	-35.5
5.3825	-7.682813	-38.3125
5.385	-7.74375	-43.875
5.3875	-7.78125	-53.5625
5.39	-7.8	-62.5625
5.3925	-7.8	-65.875
5.395	-7.785938	-60
5.3975	-7.75625	-51.4375
5.4	-7.7125	-49.65625
5.4025	-7.651563	-48.3125
5.405	-7.576563	-41.78125
5.4075	-7.482813	-41.71875
5.41	-7.373438	-53
5.4125	-7.248438	-65.03125
5.415	-7.1125	-68.9375
5.4175	-6.965625	-63.28125
5.42	-6.809375	-52.375
5.4225	-6.646875	-44.09375
5.425	-6.479688	-43
5.4275	-6.31875	-46.125
5.43	-6.1625	-48.375
5.4325	-6.017188	-48.53125
5.435	-5.885938	-49.9375
5.4375	-5.773438	-52.9375
5.44	-5.675	-53.53125
5.4425	-5.590625	-52.59375
5.445	-5.5125	-54.03125
5.4475	-5.439063	-55.3125
5.45	-5.364063	-55.53125
5.4525	-5.282813	-58.375
5.455	-5.192188	-59.71875
5.4575	-5.092188	-55.15625
5.46	-4.979688	-50.84375
5.4625	-4.857813	-49.09375
5.465	-4.732813	-43.21875
5.4675	-4.607813	-38.6875
5.47	-4.478125	-49.0625
5.4725	-4.339062	-68.53125
5.475	-4.1875	-77.59375
5.4775	-4.03125	-71.875
5.48	-3.879688	-61.15625
5.4825	-3.746875	-50.0625
5.485	-3.645313	-43.25
5.4875	-3.578125	-43.875
5.49	-3.546875	-48.90625
5.4925	-3.546875	-55.4375
5.495	-3.565625	-57.0625
5.4975	-3.595313	-48.625
5.5	-3.621875	-38.875
5.5025	-3.642188	-36
5.505	-3.65625	-33.8125
5.5075	-3.664062	-29.34375
5.51	-3.657813	-27.75
5.5125	-3.629688	-28.40625
5.515	-3.56875	-28
5.5175	-3.478125	-25.65625
5.52	-3.364063	-19.25
5.5225	-3.240625	-10.28125
5.525	-3.123438	-10.3125
5.5275	-3.014063	-20.6875
5.53	-2.915625	-23.03125
5.5325	-2.826563	-12.125
5.535	-2.746875	-3.5
5.5375	-2.679688	-1.25
5.54	-2.626563	2.875
5.5425	-2.58125	9.65625
5.545	-2.539062	14
5.5475	-2.495313	14.90625
5.55	-2.453125	13.78125
5.5525	-2.420313	11.3125
5.555	-2.404688	8.75
5.5575	-2.414062	6.90625
5.56	-2.44375	3.4375
5.5625	-2.485938	-2.3125
5.565	-2.534375	-3.34375
5.5675	-2.589063	-0.09375
5.57	-2.645313	-8.125
5.5725	-2.701563	-33.0625
5.575	-2.748438	-56.53125
5.5775	-2.78125	-65.03125
5.58	-2.795313	-64.125
5.5825	-2.7875	-60.1875
5.585	-2.757812	-55.5625
5.5875	-2.709375	-53
5.59	-2.651563	-50.28125
5.5925	-2.59375	-44.46875
5.595	-2.546875	-40.59375
5.5975	-2.510938	-42.78125
5.6	-2.4875	-48.625
5.6025	-2.470313	-56.28125
5.605	-2.4625	-64.4375
5.6075	-2.464063	-67.46875
5.61	-2.473438	-62.46875
5.6125	-2.492188	-56.25
5.615	-2.517188	-56.78125
5.6175	-2.539062	-66.5
5.62	-2.559375	-81.15625
5.6225	-2.58125	-90.375
5.625	-2.607813	-84.71875
5.6275	-2.642188	-57.25
5.63	-2.678125	2.75
5.6325	-2.7	102.2188
5.635	-2.70625	234.7812
5.6375	-2.695312	388.1562
5.64	-2.664062	539.3125
5.6425	-2.609375	658.875
5.645	-2.525	734.5938
5.6475	-2.420313	770.6562
5.65	-2.310938	774
5.6525	-2.215625	752.25
5.655	-2.146875	705.8125
5.6575	-2.1125	627.9688
5.66	-2.110937	521.5625
5.6625	-2.132812	396.25
5.665	-2.164062	264.4375
5.6675	-2.2	151.8438
5.67	-2.232813	79.1875
5.6725	-2.2625	35.1875
5.675	-2.284375	-6.40625
5.6775	-2.296875	-46.25
5.68	-2.290625	-63.71875
5.6825	-2.265625	-57.71875
5.685	-2.225	-51.1875
5.6875	-2.179688	-58.375
5.69	-2.1375	-70.6875
5.6925	-2.103125	-76.65625
5.695	-2.075	-76.875
5.6975	-2.046875	-75.4375
5.7	-2.010938	-76.15625
5.7025	-1.964063	-84.46875
5.705	-1.909375	-98.375
5.7075	-1.8625	-105.0938
5.71	-1.8375	-99.46875
5.7125	-1.842188	-90.125
5.715	-1.873438	-84.3125
5.7175	-1.921875	-82.21875
5.72	-1.98125	-81.09375
5.7225	-2.045313	-81.75
5.725	-2.1125	-86.15625
5.7275	-2.176563	-88.25
5.73	-2.23125	-80.96875
5.7325	-2.271875	-69.25
5.735	-2.303125	-63
5.7375	-2.332813	-63
5.74	-2.3625	-66.9375
5.7425	-2.392187	-70.9375
5.745	-2.417188	-70.125
5.7475	-2.43125	-67.59375
5.75	-2.43125	-71
5.7525	-2.41875	-76.75
5.755	-2.395313	-80.15625
5.7575	-2.367188	-85.25
5.76	-2.335938	-86.03125
5.7625	-2.3	-78.59375
5.765	-2.267187	-73.75
5.7675	-2.239063	-72.59375
5.77	-2.209375	-61.90625
5.7725	-2.178125	-45.625
5.775	-2.140625	-39.25
5.7775	-2.098438	-45.125
5.78	-2.059375	-55.1875
5.7825	-2.01875	-60.75
5.785	-1.984375	-61.96875
5.7875	-1.96875	-64.625
5.79	-1.984375	-67.625
5.7925	-2.034375	-60.78125
5.795	-2.114063	-42.34375
5.7975	-2.215625	-24.96875
5.8	-2.328125	-18.28125
5.8025	-2.434375	-21.4375
5.805	-2.517188	-30.34375
5.8075	-2.55625	-40.625
5.81	-2.529688	-47.8125
5.8125	-2.409375	-47.1875
5.815	-2.16875	-38.5
5.8175	-1.775	-28.34375
5.82	-1.204688	-23.40625
5.8225	-0.4296875	-24.4375
5.825	0.5734375	-25.53125
5.8275	1.821875	-21.8125
5.83	3.314063	-16.4375
5.8325	5.048438	-14.53125
5.835	7.023438	-12.40625
5.8375	9.225	-4.1875
5.84	11.62969	4.90625
5.8425	14.18281	3.9375
5.845	16.83594	-4.96875
5.8475	19.56406	-6.21875
5.85	22.34063	6.15625
5.8525	25.12813	20.28125
5.855	27.87656	20.875
5.8575	30.53594	7.53125
5.86	33.06094	-2.6875
5.8625	35.41875	2.21875
5.865	37.57031	15.40625
5.8675	39.46094	29.6875
5.87	41.02813	47.625
5.8725	42.21563	66
5.875	42.98281	72.1875
5.8775	43.30625	63.5
5.88	43.15938	53.0625
5.8825	42.54531	48.46875
5.885	41.49844	46.875
5.8875	40.08438	49.53125
5.89	38.375	59.875
5.8925	36.4375	74.25
5.895	34.33125	83.65625
5.8975	32.10469	86.03125
5.9	29.80469	85.84375
5.9025	27.46563	87.75
5.905	25.12656	90.28125
5.9075	22.82812	90.34375
5.91	20.60313	92.4375
5.9125	18.48125	98.625
5.915	16.48906	105.3125
5.9175	14.63906	110.9375
5.92	12.9375	113.8125
5.9225	11.39062	113.2812
5.925	9.99375	115.4062
5.9275	8.757812	120.9062
5.93	7.685938	120.8438
5.9325	6.7875	113.8438
5.935	6.065625	105.8438
5.9375	5.51875	100.5625
5.94	5.142188	94.625
5.9425	4.93125	83.375
5.945	4.878125	70.59375
5.9475	4.96875	63.9375
5.95	5.192188	65.21875
5.9525	5.53125	68.375
5.955	5.964063	66
5.9575	6.473438	53.8125
5.96	7.046875	28.78125
5.9625	7.679688	-1.75
5.965	8.364063	-21.65625
5.9675	9.0875	-28.5625
5.97	9.83125	-29.15625
5.9725	10.58438	-27.25
5.975	11.34063	-27.34375
5.9775	12.09063	-33.125
5.98	12.82656	-40.53125
5.9825	13.53281	-45.09375
5.985	14.19063	-45.75
5.9875	14.78438	-45.1875
5.99	15.31094	-48.03125
5.9925	15.76562	-54.4375
5.995	16.14688	-61.34375
5.9975	16.45312	-64.46875
6	16.67813	-59.96875
6.0025	16.81719	-51.6875
6.005	16.8625	-50.75
6.0075	16.81406	-57.125
6.01	16.66563	-60
6.0125	16.41875	-56.4375
6.015	16.07344	-53.25
6.0175	15.62656	-55.96875
6.02	15.07188	-61.0625
6.0225	14.40938	-61.84375
6.025	13.6375	-59.65625
6.0275	12.76406	-60.25
6.03	11.79688	-61.25
6.0325	10.74219	-61.0625
6.035	9.604688	-64.625
6.0375	8.382812	-72.3125
6.04	7.073438	-79.15625
6.0425	5.679688	-79.03125
6.045	4.204688	-70.9375
6.0475	2.657813	-60.5
6.05	1.05	-55.40625
6.0525	-0.609375	-55.75
6.055	-2.3125	-55.6875
6.0575	-4.054688	-56.03125
6.06	-5.826563	-63.75
6.0625	-7.615625	-76.6875
6.065	-9.407813	-85
6.0675	-11.18125	-87.53125
6.07	-12.90938	-89.375
6.0725	-14.55938	-92.90625
6.075	-16.10313	-96.71875
6.0775	-17.50781	-95.8125
6.08	-18.75	-86.15625
6.0825	-19.8125	-70.5
6.085	-20.68906	-58.90625
6.0875	-21.37813	-57.875
6.09	-21.87344	-63.6875
6.0925	-22.18125	-67.15625
6.095	-22.30156	-66.34375
6.0975	-22.24219	-68.90625
6.1	-22.01875	-75.28125
6.1025	-21.65469	-77.28125
6.105	-21.16719	-73.78125
6.1075	-20.57188	-69.875
6.11	-19.88594	-62.4375
6.1125	-19.12656	-51.53125
6.115	-18.30156	-46.4375
6.1175	-17.42344	-51.96875
6.12	-16.5	-67.46875
6.1225	-15.54531	-83.21875
6.125	-14.57656	-86
6.1275	-13.60313	-76.875
6.13	-12.6375	-66.8125
6.1325	-11.69531	-59.3125
6.135	-10.79688	-55.1875
6.1375	-9.9625	-56.625
6.14	-9.207813	-59.59375
6.1425	-8.535938	-62.53125
6.145	-7.934375	-66.125
6.1475	-7.395313	-64.78125
6.15	-6.90625	-58.84375
6.1525	-6.464063	-59.03125
6.155	-6.071875	-68.0625
6.1575	-5.742188	-79.0625
6.16	-5.482813	-84.25
6.1625	-5.2875	-80.59375
6.165	-5.14375	-73.71875
6.1675	-5.0375	-70.78125
6.17	-4.964063	-74.5625
6.1725	-4.921875	-83.1875
6.175	-4.907813	-88.875
6.1775	-4.920313	-88.21875
6.18	-4.95625	-88.8125
6.1825	-5.0125	-94.75
6.185	-5.092188	-99.6875
6.1875	-5.192188	-98.28125
6.19	-5.315625	-90.6875
6.1925	-5.460938	-82.21875
6.195	-5.61875	-78.1875
6.1975	-5.784375	-80.3125
6.2	-5.954688	-82.84375
6.2025	-6.129688	-79.09375
6.205	-6.307813	-75.34375
6.2075	-6.484375	-79.84375
6.21	-6.660938	-87.21875
6.2125	-6.829688	-91.21875
6.215	-6.982813	-96.1875
6.2175	-7.1125	-101.4062
6.22	-7.223438	-100.75
6.2225	-7.321875	-95.125
6.225	-7.4125	-88.625
6.2275	-7.496875	-84.09375
6.23	-7.570312	-81.53125
6.2325	-7.634375	-80.125
6.235	-7.692188	-82.34375
6.2375	-7.75	-86.875
6.24	-7.807813	-84.8125
6.2425	-7.864063	-75.25
6.245	-7.915625	-65.75
6.2475	-7.95625	-61.3125
6.25	-7.978125	-67.46875
6.2525	-7.976562	-83.4375
6.255	-7.953125	-97.28125
6.2575	-7.9125	-99.9375
6.26	-7.864063	-95.15625
6.2625	-7.803125	-90.8125
6.265	-7.729688	-88.40625
6.2675	-7.639063	-87.8125
6.27	-7.534375	-90.625
6.2725	-7.41875	-93.96875
6.275	-7.296875	-92.5
6.2775	-7.171875	-86
6.28	-7.040625	-78.625
6.2825	-6.903125	-78.59375
6.285	-6.754688	-95
6.2875	-6.598438	-116.875
6.29	-6.439063	-122.6875
6.2925	-6.284375	-111.1562
6.295	-6.1375	-99.71875
6.2975	-6.00625	-99.5
6.3	-5.89375	-103.9688
6.3025	-5.795313	-104.25
6.305	-5.707813	-101.2812
6.3075	-5.625	-100.7812
6.31	-5.539062	-101.875
6.3125	-5.440625	-101
6.315	-5.326563	-98.78125
6.3175	-5.196875	-96.5625
6.32	-5.057813	-94.40625
6.3225	-4.923438	-91.28125
6.325	-4.801563	-88.40625
6.3275	-4.698437	-87.4375
6.33	-4.620312	-87.78125
6.3325	-4.571875	-90.1875
6.335	-4.548438	-95.25
6.3375	-4.5375	-97.15625
6.34	-4.523438	-93.46875
6.3425	-4.496875	-92.4375
6.345	-4.45	-95.0625
6.3475	-4.379688	-90.625
6.35	-4.282813	-85.5
6.3525	-4.164062	-93.40625
6.355	-4.029688	-104.2188
6.3575	-3.885938	-102.5938
6.36	-3.740625	-93.6875
6.3625	-3.595313	-87.8125
6.365	-3.45625	-85.1875
6.3675	-3.326563	-81.0625
6.37	-3.215625	-73.78125
6.3725	-3.13125	-71.96875
6.375	-3.076563	-78.5625
6.3775	-3.045313	-83.3125
6.38	-3.029688	-82.5625
6.3825	-3.023438	-83.6875
6.385	-3.023438	-89.8125
6.3875	-3.026563	-99.21875
6.39	-3.035938	-107.0938
6.3925	-3.042188	-106.375
6.395	-3.0375	-100.5625
6.3975	-3.007812	-97.75
6.4	-2.948438	-97.625
6.4025	-2.860938	-97.375
6.405	-2.75625	-97.15625
6.4075	-2.64375	-93.25
6.41	-2.532813	-83.375
6.4125	-2.432813	-75.125
6.415	-2.348438	-74.375
6.4175	-2.28125	-79.03125
6.42	-2.2375	-86.625
6.4225	-2.228125	-96.0625
6.425	-2.265625	-100.6562
6.4275	-2.35	-94.21875
6.43	-2.467188	-80.1875
6.4325	-2.603125	-67.34375
6.435	-2.7375	-60.59375
6.4375	-2.854688	-57.625
6.44	-2.94375	-57.46875
6.4425	-3	-59.53125
6.445	-3.025	-58.25
6.4475	-3.017188	-52.0625
6.45	-2.98125	-48.65625
6.4525	-2.921875	-49.5625
6.455	-2.846875	-47.09375
6.4575	-2.759375	-42.59375
6.46	-2.6625	-41.9375
6.4625	-2.565625	-44.625
6.465	-2.476562	-48.59375
6.4675	-2.4	-53.25
6.47	-2.3375	-58.625
6.4725	-2.29375	-68.9375
6.475	-2.276563	-84.78125
6.4775	-2.2875	-98.59375
6.48	-2.323438	-108.7188
6.4825	-2.38125	-116.5312
6.485	-2.457813	-118.375
6.4875	-2.548438	-113.5938
6.49	-2.65	-109.0625
6.4925	-2.746875	-109.125
6.495	-2.828125	-109.75
6.4975	-2.884375	-107.7812
6.5	-2.920313	-109.25
6.5025	-2.934375	-120.125
6.505	-2.9375	-133
6.5075	-2.934375	-137.9375
6.51	-2.923438	-135.7812
6.5125	-2.904688	-130.5938
6.515	-2.882812	-124.6562
6.5175	-2.860938	-123.75
6.52	-2.842188	-132.7812
6.5225	-2.826563	-147.2188
6.525	-2.807813	-158.5312
6.5275	-2.782813	-162.875
6.53	-2.748438	-159.4688
6.5325	-2.710938	-143.6562
6.535	-2.671875	-101.2812
6.5375	-2.632812	-17.96875
6.54	-2.604688	107.7188
6.5425	-2.585938	261.4062
6.545	-2.573438	419.75
6.5475	-2.559375	557.0312
6.55	-2.546875	649.0312
6.5525	-2.534375	688.5
6.555	-2.51875	692.875
6.5575	-2.496875	686.2188
6.56	-2.467188	667.3125
6.5625	-2.434375	616.125
6.565	-2.396875	521.0625
6.5675	-2.359375	388.5
6.57	-2.323438	243.1875
6.5725	-2.295313	119.0938
6.575	-2.278125	34.875
6.5775	-2.271875	-19.53125
6.58	-2.270313	-66.625
6.5825	-2.271875	-112.9062
6.585	-2.28125	-141.7812
6.5875	-2.3	-145.4688
6.59	-2.328125	-140.5938
6.5925	-2.360937	-141
6.595	-2.395313	-144.9375
6.5975	-2.425	-148.2812
6.6	-2.44375	-150.8125
6.6025	-2.448438	-154.0312
6.605	-2.435938	-155.6875
6.6075	-2.404688	-155.7812
6.61	-2.359375	-162.2812
6.6125	-2.303125	-177.5312
6.615	-2.240625	-192.6562
6.6175	-2.18125	-199.5312
6.62	-2.129688	-196.625
6.6225	-2.082813	-186.875
6.625	-2.042188	-177.8125
6.6275	-2.00625	-172.625
6.63	-1.971875	-169.5
6.6325	-1.939063	-170.5625
6.635	-1.901563	-176.9688
6.6375	-1.864063	-183.4688
6.64	-1.834375	-186.3438
6.6425	-1.815625	-186.9375
6.645	-1.810938	-183.9688
6.6475	-1.815625	-174.4688
6.65	-1.83125	-162.9062
6.6525	-1.854688	-156.8125
6.655	-1.8875	-156.9375
6.6575	-1.925	-160.1562
6.66	-1.957813	-165.25
6.6625	-1.979688	-167.9375
6.665	-1.985938	-163.9688
6.6675	-1.982813	-155.8125
6.67	-1.979688	-149.375
6.6725	-1.978125	-146.5938
6.675	-1.978125	-148.875
6.6775	-1.975	-160.2188
6.68	-1.964063	-174.5
6.6825	-1.953125	-182.4062
6.685	-1.948438	-184.3438
6.6875	-1.953125	-180.6562
6.69	-1.9625	-169.0938
6.6925	-1.967188	-158.9062
6.695	-1.964063	-159.0938
6.6975	-1.951563	-164.2188
6.7	-1.932813	-166.5938
6.7025	-1.914062	-163.5312
6.705	-1.901563	-156.6875
6.7075	-1.892188	-148.2188
6.71	-1.873438	-139.8438
6.7125	-1.834375	-135.375
6.715	-1.75	-137.1562
6.7175	-1.59375	-141.25
6.72	-1.334375	-142.9062
6.7225	-0.928125	-139.1875
6.725	-0.3265625	-133.4688
6.7275	0.50625	-136.5625
6.73	1.604688	-146.9375
6.7325	2.975	-150.6875
6.735	4.607813	-146.3125
6.7375	6.475	-140.1875
6.74	8.559375	-131
6.7425	10.8375	-123.5312
6.745	13.27344	-125.2188
6.7475	15.82031	-129.5938
6.75	18.44375	-127.9062
6.7525	21.12656	-126.125
6.755	23.85938	-128.2812
6.7575	26.61094	-123.25
6.76	29.33438	-107.3438
6.7625	31.98125	-92.65625
6.765	34.49375	-87.1875
6.7675	36.82187	-85.9375
6.77	38.90938	-82.40625
6.7725	40.69375	-75.46875
6.775	42.10938	-68.6875
6.7775	43.1	-63.40625
6.78	43.62813	-57.46875
6.7825	43.67031	-52.28125
6.785	43.21875	-47.9375
6.7875	42.29688	-41.375
6.79	40.96094	-34.96875
6.7925	39.29063	-33.125
6.795	37.37031	-34.59375
6.7975	35.26875	-35.46875
6.8	33.04688	-33.84375
6.8025	30.75469	-28.84375
6.805	28.425	-21.875
6.8075	26.09375	-13.875
6.81	23.79375	-3.59375
6.8125	21.55781	6.84375
6.815	19.40938	11.78125
6.8175	17.36875	11.46875
6.82	15.45781	13.5
6.8225	13.69531	24.25
6.825	12.10469	42.875
6.8275	10.70625	59.71875
6.83	9.510938	59.09375
6.8325	8.514062	38.78125
6.835	7.709375	17.03125
6.8375	7.078125	10.59375
6.84	6.607813	17.625
6.8425	6.282813	24.3125
6.845	6.096875	22.125
6.8475	6.040625	15.46875
6.85	6.098438	12.96875
6.8525	6.257812	14.3125
6.855	6.509375	10.90625
6.8575	6.848438	-0.78125
6.86	7.271875	-12.4375
6.8625	7.770313	-19.25
6.865	8.33125	-25.875
6.8675	8.935937	-34.375
6.87	9.567188	-43.5625
6.8725	10.21719	-52.21875
6.875	10.88438	-56.71875
6.8775	11.56406	-57.25
6.88	12.24844	-61.375
6.8825	12.92188	-70.75
6.885	13.57344	-77.6875
6.8875	14.19688	-77.28125
6.89	14.79375	-74.46875
6.8925	15.36563	-74.15625
6.895	15.9125	-74.5
6.8975	16.42656	-76.03125
6.9	16.88906	-84.65625
6.9025	17.27656	-100.0938
6.905	17.57656	-113.8125
6.9075	17.77969	-120.0625
6.91	17.87813	-120.1875
6.9125	17.87344	-118.75
6.915	17.76562	-118.7188
6.9175	17.54688	-119.0312
6.92	17.2125	-118.0938
6.9225	16.75625	-116.4688
6.925	16.17656	-115.7188
6.9275	15.47656	-117.1875
6.93	14.66406	-115.5
6.9325	13.73906	-107.1875
6.935	12.7	-100.25
6.9375	11.55156	-98.15625
6.94	10.30781	-96
6.9425	8.985938	-96.125
6.945	7.6	-103.7812
6.9475	6.157813	-115.4688
6.95	4.66875	-124.125
6.9525	3.145313	-124.7188
6.955	1.598438	-118.9375
6.9575	0.0390625	-110.2812
6.96	-1.529688	-99.21875
6.9625	-3.10625	-91.3125
6.965	-4.690625	-92.03125
6.9675	-6.2875	-99.90625
6.97	-7.896875	-109.5
6.9725	-9.514062	-115.5
6.975	-11.13281	-114.7812
6.9775	-12.74063	-109.0938
6.98	-14.31875	-107.25
6.9825	-15.83906	-116.5625
6.985	-17.26406	-128.3125
6.9875	-18.56094	-127.9688
6.99	-19.70781	-119.8125
6.9925	-20.68281	-114.0312
6.995	-21.47656	-109.2812
6.9975	-22.08594	-105.5
7	-22.50313	-103.8125
7.0025	-22.72969	-99.0625
7.005	-22.77656	-94.21875
7.0075	-22.65156	-98.5625
7.01	-22.36563	-109.2812
7.0125	-21.92344	-116.8125
7.015	-21.33594	-119.125
7.0175	-20.61875	-118.2188
7.02	-19.79063	-116.5938
7.0225	-18.87969	-117.0312
7.025	-17.90625	-118.5312
7.0275	-16.89062	-115.9375
7.03	-15.85469	-104.75
7.0325	-14.81406	-89
7.035	-13.79531	-81
7.0375	-12.8125	-89.59375
7.04	-11.88125	-110.2188
7.0425	-11.00313	-127.3125
7.045	-10.17813	-125.3125
7.0475	-9.409375	-106.7188
7.05	-8.698438	-95.5625
7.0525	-8.046875	-103.4062
7.055	-7.460938	-113.1875
7.0575	-6.94375	-113.1562
7.06	-6.496875	-112.25
7.0625	-6.11875	-115.4688
7.065	-5.80625	-118.7812
7.0675	-5.548438	-122.5938
7.07	-5.34375	-126.2188
7.0725	-5.1875	-124.4375
7.075	-5.075	-119.4688
7.0775	-4.998438	-118.2812
7.08	-4.95	-121.25
7.0825	-4.925	-126.5625
7.085	-4.921875	-134.4062
7.0875	-4.94375	-140.8438
7.09	-4.996875	-140.25
7.0925	-5.076563	-131.8125
7.095	-5.176563	-118.7812
7.0975	-5.3	-108.0938
7.1	-5.446875	-107.1562
7.1025	-5.621875	-112.375
7.105	-5.825	-114.8125
7.1075	-6.048438	-115.0625
7.11	-6.273438	-119.5
7.1125	-6.489063	-130.4062
7.115	-6.695312	-143.6562
7.1175	-6.8875	-151.125
7.12	-7.059375	-149.6562
7.1225	-7.2	-143.875
7.125	-7.3125	-137.6875
7.1275	-7.398438	-131.9062
7.13	-7.460938	-124.2188
7.1325	-7.5125	-113.1875
7.135	-7.5625	-110.3125
7.1375	-7.629688	-125.0938
7.14	-7.714063	-144.9688
7.1425	-7.809375	-154.5312
7.145	-7.901563	-152.8125
7.1475	-7.973438	-144.7188
7.15	-8.020313	-133.2188
7.1525	-8.039062	-122.1562
7.155	-8.028125	-115.7188
7.1575	-7.9875	-119.4375
7.16	-7.925	-132.8125
7.1625	-7.84375	-143.7812
7.165	-7.75	-145.5938
7.1675	-7.653125	-145.2188
7.17	-7.564063	-147.4062
7.1725	-7.492188	-148.7188
7.175	-7.432813	-147.4688
7.1775	-7.379688	-143.7812
7.18	-7.323438	-136.1562
7.1825	-7.2625	-128.8438
7.185	-7.198438	-128.4375
7.1875	-7.125	-133.7812
7.19	-7.0375	-138.8438
7.1925	-6.939063	-140.9062
7.195	-6.83125	-141.4688
7.1975	-6.721875	-142.7188
7.2	-6.6125	-145.5938
7.2025	-6.50625	-146.1875
7.205	-6.398438	-141.375
7.2075	-6.2875	-134.2812
7.21	-6.16875	-129.5312
7.2125	-6.032813	-126.9375
7.215	-5.88125	-126.5
7.2175	-5.715625	-129.375
7.22	-5.540625	-132.1875
7.2225	-5.367188	-131.3125
7.225	-5.198438	-126.6875
7.2275	-5.040625	-123.875
7.23	-4.892188	-125.875
7.2325	-4.748438	-127.1875
7.235	-4.609375	-124.1562
7.2375	-4.476562	-123.1875
7.24	-4.35625	-124.3438
7.2425	-4.248438	-121.625
7.245	-4.154688	-120.6562
7.2475	-4.073437	-125.125
7.25	-4.003125	-128.3438
7.2525	-3.9375	-125.3125
7.255	-3.88125	-120.7812
7.2575	-3.835938	-119.3438
7.26	-3.8	-116.0938
7.2625	-3.767188	-110.5312
7.265	-3.725	-112.2188
7.2675	-3.665625	-119.4688
7.27	-3.582813	-115.9062
7.2725	-3.475	-102.3125
7.275	-3.340625	-99.09375
7.2775	-3.189063	-111.875
7.28	-3.039062	-124.75
7.2825	-2.9125	-128.4688
7.285	-2.83125	-129.75
7.2875	-2.801563	-131.25
7.29	-2.821875	-131.4688
7.2925	-2.871875	-131.4688
7.295	-2.929688	-128.5625
7.2975	-2.978125	-119.8438
7.3	-3.009375	-112.5938
7.3025	-3.025	-115.5938
7.305	-3.039062	-126.0312
7.3075	-3.054688	-133.9062
7.31	-3.071875	-130.8125
7.3125	-3.092188	-120.8125
7.315	-3.11875	-114.4375
7.3175	-3.154688	-113.6562
7.32	-3.201563	-112.7188
7.3225	-3.257812	-110.75
7.325	-3.310938	-113.0312
7.3275	-3.345313	-125.0625
7.33	-3.351562	-142
7.3325	-3.321875	-149.2812
7.335	-3.260938	-142.8125
7.3375	-3.184375	-132.25
7.34	-3.107813	-127.6875
7.3425	-3.039062	-130.3438
7.345	-2.982813	-132.3125
7.3475	-2.934375	-125.4062
7.35	-2.889063	-111.2812
7.3525	-2.84375	-101.125
7.355	-2.79375	-101.875
7.3575	-2.740625	-109.1562
7.36	-2.692188	-112.7812
7.3625	-2.651563	-110.5
7.365	-2.625	-107.6562
7.3675	-2.620313	-107.2188
7.37	-2.640625	-106.1875
7.3725	-2.689063	-101.625
7.375	-2.7625	-91.21875
7.3775	-2.851562	-78.21875
7.38	-2.948438	-72.4375
7.3825	-3.040625	-73.71875
7.385	-3.120313	-74.0625
7.3875	-3.1875	-70.90625
7.39	-3.240625	-64.75
7.3925	-3.279688	-55.5625
7.395	-3.303125	-48.59375
7.3975	-3.314063	-43.40625
7.4	-3.3125	-36.875
7.4025	-3.301563	-37.0625
7.405	-3.282813	-48.21875
7.4075	-3.253125	-55.40625
7.41	-3.209375	-50.5625
7.4125	-3.146875	-46.5
7.415	-3.060938	-50.59375
7.4175	-2.95625	-59.78125
7.42	-2.84375	-72.25
7.4225	-2.73125	-83.0625
7.425	-2.625	-86.65625
7.4275	-2.526563	-88.53125
7.43	-2.4375	-94.96875
7.4325	-2.365625	-102.7188
7.435	-2.31875	-105.9688
7.4375	-2.301563	-103.5
7.44	-2.314062	-100.4688
7.4425	-2.346875	-98.40625
7.445	-2.39375	-93.71875
7.4475	-2.44375	-89.875
7.45	-2.489063	-91.46875
7.4525	-2.528125	-92.09375
7.455	-2.559375	-86.28125
7.4575	-2.579688	-80.84375
7.46	-2.590625	-79.53125
7.4625	-2.595313	-78.125
7.465	-2.6	-74.25
7.4675	-2.609375	-73.6875
7.47	-2.626563	-82.375
7.4725	-2.653125	-97.0625
7.475	-2.682813	-110.0938
7.4775	-2.709375	-115.3438
7.48	-2.73125	-104.5
7.4825	-2.740625	-66.4375
7.485	-2.735938	7.53125
7.4875	-2.71875	124.3438
7.49	-2.690625	279.75
7.4925	-2.653125	445.5
7.495	-2.610938	587
7.4975	-2.565625	689
7.5	-2.514063	752.8438
7.5025	-2.454688	782.7812
7.505	-2.3875	779.625
7.5075	-2.314062	746.5
7.51	-2.242188	687.5625
7.5125	-2.176563	598.5
7.515	-2.121875	474.0312
7.5175	-2.082813	329.3125
7.52	-2.064062	195.625
7.5225	-2.065625	91.875
7.525	-2.084375	17.25
7.5275	-2.1125	-35.8125
7.53	-2.14375	-70.5
7.5325	-2.165625	-90.15625
7.535	-2.175	-103.9688
7.5375	-2.173437	-117.3125
7.54	-2.165625	-126.375
7.5425	-2.151563	-127.3438
7.545	-2.125	-122.125
7.5475	-2.085938	-117.75
7.55	-2.040625	-125.8125
7.5525	-1.99375	-143.25
7.555	-1.953125	-153.9688
7.5575	-1.925	-158.375
7.56	-1.904688	-166.3438
7.5625	-1.892188	-173.625
7.565	-1.885938	-174.0625
7.5675	-1.885938	-172.125
7.57	-1.895313	-171.5312
7.5725	-1.910938	-169.375
7.575	-1.932813	-162.875
7.5775	-1.9625	-155.9375
7.58	-1.996875	-154.4375
7.5825	-2.028125	-158.9062
7.585	-2.051563	-166.0938
7.5875	-2.067188	-171.75
7.59	-2.075	-170.9375
7.5925	-2.076563	-160.6875
7.595	-2.065625	-148.5
7.5975	-2.04375	-148.125
7.6	-2.009375	-158.25
7.6025	-1.964063	-164.1562
7.605	-1.909375	-161.6562
7.6075	-1.85	-159.7188
7.61	-1.782813	-160
7.6125	-1.710938	-155
7.615	-1.635938	-142.5312
7.6175	-1.565625	-134.375
7.62	-1.509375	-142.5
7.6225	-1.48125	-160.4375
7.625	-1.479688	-172.9375
7.6275	-1.498438	-172.4375
7.63	-1.532813	-162.8438
7.6325	-1.579688	-153.5625
7.635	-1.642188	-149.25
7.6375	-1.714063	-146.3125
7.64	-1.79375	-144.0938
7.6425	-1.878125	-146.5312
7.645	-1.970313	-147.3125
7.6475	-2.059375	-136.375
7.65	-2.139063	-124.4062
7.6525	-2.204687	-132.1875
7.655	-2.25	-154.75
7.6575	-2.267187	-169.6562
7.66	-2.2375	-170.125
7.6625	-2.145313	-164.5
7.665	-1.970313	-158.0938
7.6675	-1.685938	-149.75
7.67	-1.265625	-140.0625
7.6725	-0.6875	-134.7188
7.675	0.071875	-135.6562
7.6775	1.035937	-138.875
7.68	2.223438	-140.75
7.6825	3.64375	-137.9375
7.685	5.295313	-130.0312
7.6875	7.167188	-121.6875
7.69	9.253125	-116.75
7.6925	11.5375	-113.7812
7.695	13.98125	-111.0312
7.6975	16.52188	-107.8125
7.7	19.11094	-103.2188
7.7025	21.72188	-99.375
7.705	24.33906	-98.46875
7.7075	26.93594	-99.5625
7.71	29.48125	-97.65625
7.7125	31.92813	-90.40625
7.715	34.23438	-84
7.7175	36.35312	-80.46875
7.72	38.23438	-70.5625
7.7225	39.81719	-58.21875
7.725	41.04531	-61.34375
7.7275	41.87031	-77.09375
7.73	42.26406	-85.53125
7.7325	42.19688	-79.125
7.735	41.65938	-65.03125
7.7375	40.66563	-50.75
7.74	39.25938	-40.71875
7.7425	37.51094	-36.34375
7.745	35.50156	-33.25
7.7475	33.30625	-26.65625
7.75	30.98594	-20.5
7.7525	28.6	-19.3125
7.755	26.2	-20.28125
7.7575	23.82969	-18.59375
7.76	21.52031	-7.84375
7.7625	19.29531	10.875
7.765	17.175	20.78125
7.7675	15.16719	10.125
7.77	13.28594	-7.4375
7.7725	11.54219	-11.78125
7.775	9.948438	-3.15625
7.7775	8.51875	6.9375
7.78	7.265625	13.875
7.7825	6.196875	16.6875
7.785	5.314063	14.78125
7.7875	4.615625	12.40625
7.79	4.090625	9.40625
7.7925	3.729688	3.84375
7.795	3.523438	-0.03125
7.7975	3.464063	-1.625
7.8	3.542188	-5.25
7.8025	3.75	-10.90625
7.805	4.071875	-15.65625
7.8075	4.492188	-18.90625
7.81	4.995313	-24.875
7.8125	5.560938	-37.09375
7.815	6.179688	-48.96875
7.8175	6.839063	-53.375
7.82	7.528125	-53.5
7.8225	8.23125	-57.125
7.825	8.939063	-66.53125
7.8275	9.640625	-77.0625
7.83	10.32969	-85.5625
7.8325	11.00156	-92.03125
7.835	11.65156	-99.21875
7.8375	12.27344	-109.75
7.84	12.85781	-120.0938
7.8425	13.38594	-125
7.845	13.84688	-125.7812
7.8475	14.23438	-125.1562
7.85	14.54688	-122.1562
7.8525	14.77813	-120.1875
7.855	14.92969	-125.9062
7.8575	15	-135.2812
7.86	14.99219	-135.2812
7.8625	14.90938	-126.125
7.865	14.76094	-119.625
7.8675	14.54063	-117.6562
7.87	14.24688	-115.1875
7.8725	13.87188	-111.3438
7.875	13.4	-109.1562
7.8775	12.82656	-113.9062
7.88	12.15625	-124.1875
7.8825	11.39688	-133.0312
7.885	10.54531	-137.875
7.8875	9.582813	-139.1875
7.89	8.49375	-137.25
7.8925	7.278125	-136
7.895	5.95	-141.4688
7.8975	4.534375	-149.0625
7.9	3.053125	-148.0625
7.9025	1.51875	-142.1562
7.905	-0.0640625	-140.25
7.9075	-1.696875	-139.3438
7.91	-3.36875	-135.5625
7.9125	-5.064063	-133.375
7.915	-6.7625	-134.5625
7.9175	-8.45625	-138.8438
7.92	-10.14219	-145.0625
7.9225	-11.8125	-148.5938
7.925	-13.44688	-149.5625
7.9275	-15.01406	-150.75
7.93	-16.47969	-149.5
7.9325	-17.8125	-142.8438
7.935	-18.99063	-136.7812
7.9375	-19.99063	-135.2812
7.94	-20.8	-134.0312
7.9425	-21.40469	-131.4688
7.945	-21.80313	-130.875
7.9475	-22.00469	-135.7812
7.95	-22.02344	-143.8438
7.9525	-21.88125	-145.4375
7.955	-21.60469	-134.8125
7.9575	-21.22031	-121.125
7.96	-20.74063	-114.375
7.9625	-20.17656	-111.875
7.965	-19.53438	-109
7.9675	-18.82031	-106.75
7.97	-18.04688	-109.3438
7.9725	-17.225	-113.4375
7.975	-16.36719	-112.375
7.9775	-15.48281	-108.9688
7.98	-14.57656	-110.0938
7.9825	-13.6625	-111.4688
7.985	-12.74844	-105.75
7.9875	-11.85	-96.53125
7.99	-10.97969	-89.96875
7.9925	-10.14688	-87.625
7.995	-9.3625	-91.59375
7.9975	-8.63125	-101.5625
8	-7.965625	-110.5938
8.0025	-7.370313	-113.0938
8.005	-6.85	-110.5312
8.0075	-6.401563	-103.8438
8.01	-6.020313	-92.0625
8.0125	-5.701563	-81.96875
8.015	-5.44375	-84.53125
8.0175	-5.24375	-99.15625
8.02	-5.095313	-112.0938
8.0225	-4.985938	-113.4375
8.025	-4.90625	-106.1562
8.0275	-4.854688	-97.8125
8.03	-4.832813	-91.40625
8.0325	-4.840625	-84.90625
8.035	-4.876563	-79.46875
8.0375	-4.934375	-83.15625
8.04	-5.009375	-95.125
8.0425	-5.092188	-100.9375
8.045	-5.178125	-95.90625
8.0475	-5.265625	-90.78125
8.05	-5.353125	-88.375
8.0525	-5.440625	-83.46875
8.055	-5.525	-79.75
8.0575	-5.598438	-79.90625
8.06	-5.664062	-79.34375
8.0625	-5.732813	-78.71875
8.065	-5.810938	-78.875
8.0675	-5.90625	-75
8.07	-6.026563	-69.84375
8.0725	-6.176563	-70.3125
8.075	-6.353125	-74.5
8.0775	-6.545313	-77.09375
8.08	-6.7375	-76.25
8.0825	-6.910938	-72.875
8.085	-7.053125	-70.21875
8.0875	-7.167188	-70.1875
8.09	-7.257812	-73.625
8.0925	-7.323438	-78
8.095	-7.364063	-78.71875
8.0975	-7.379688	-74.875
8.1	-7.370313	-70.375
8.1025	-7.332813	-70
8.105	-7.276563	-74.15625
8.1075	-7.20625	-77.15625
8.11	-7.126563	-73.65625
8.1125	-7.039062	-66.125
8.115	-6.945312	-58.9375
8.1175	-6.845313	-54.90625
8.12	-6.739063	-57.5
8.1225	-6.629688	-67.96875
8.125	-6.517188	-77.71875
8.1275	-6.409375	-78.25
8.13	-6.304688	-74.125
8.1325	-6.207813	-69.28125
8.135	-6.121875	-64.3125
8.1375	-6.046875	-66.5625
8.14	-5.984375	-75.125
8.1425	-5.932813	-77.28125
8.145	-5.8875	-72.625
8.1475	-5.84375	-66.96875
8.15	-5.796875	-57.59375
8.1525	-5.746875	-49.0625
8.155	-5.690625	-49.65625
8.1575	-5.63125	-53
8.16	-5.570312	-48.59375
8.1625	-5.509375	-39.125
8.165	-5.445312	-31.375
8.1675	-5.36875	-27.96875
8.17	-5.270313	-27.53125
8.1725	-5.15625	-27.6875
8.175	-5.026563	-28.03125
8.1775	-4.88125	-27.9375
8.18	-4.714062	-26.59375
8.1825	-4.528125	-27.25
8.185	-4.329688	-31.3125
8.1875	-4.13125	-30.9375
8.19	-3.942188	-21.1875
8.1925	-3.770313	-6.84375
8.195	-3.623438	5.28125
8.1975	-3.510938	11.125
8.2	-3.432813	9.84375
8.2025	-3.3875	6.375
8.205	-3.371875	5.875
8.2075	-3.379688	10.5
8.21	-3.401563	20.5625
8.2125	-3.423438	33.71875
8.215	-3.429688	47.28125
8.2175	-3.404688	61.6875
8.22	-3.35	73.96875
8.2225	-3.267188	72.625
8.225	-3.165625	54.09375
8.2275	-3.05625	32.53125
8.23	-2.95625	21.65625
8.2325	-2.878125	18.3125
8.235	-2.834375	17.3125
8.2375	-2.823438	18.9375
8.24	-2.839063	23.90625
8.2425	-2.867188	30.5625
8.245	-2.89375	31.5625
8.2475	-2.9125	25.6875
8.25	-2.921875	20.8125
8.2525	-2.91875	20.21875
8.255	-2.901563	22.75
8.2575	-2.86875	28.0625
8.26	-2.817188	32.09375
8.2625	-2.748438	31.8125
8.265	-2.667188	30.96875
8.2675	-2.579688	29.625
8.27	-2.498438	25.28125
8.2725	-2.434375	16.8125
8.275	-2.4	7.34375
8.2775	-2.398438	5.78125
8.28	-2.425	13.46875
8.2825	-2.475	20.34375
8.285	-2.542188	20.34375
8.2875	-2.617188	16.46875
8.29	-2.695312	12
8.2925	-2.765625	13.15625
8.295	-2.815625	23.46875
8.2975	-2.840625	31.90625
8.3	-2.8375	29.84375
8.3025	-2.817188	25.375
8.305	-2.790625	24.875
8.3075	-2.7625	23.71875
8.31	-2.740625	19.625
8.3125	-2.73125	15.34375
8.315	-2.729688	13.1875
8.3175	-2.732813	12.9375
8.32	-2.734375	14.8125
8.3225	-2.732813	19.78125
8.325	-2.723438	31.9375
8.3275	-2.701563	51.78125
8.33	-2.665625	65.28125
8.3325	-2.617188	57.4375
8.335	-2.565625	36.21875
8.3375	-2.520313	27.1875
8.34	-2.485938	40.125
8.3425	-2.459375	64.09375
8.345	-2.446875	85.6875
8.3475	-2.451563	93.96875
8.35	-2.479688	83.9375
8.3525	-2.534375	69.625
8.355	-2.609375	63.59375
8.3575	-2.7	53.90625
8.36	-2.790625	36.96875
8.3625	-2.86875	31.375
8.365	-2.920313	37.75
8.3675	-2.9375	37.5625
8.37	-2.923438	26.75
8.3725	-2.88125	11.5
8.375	-2.814063	-0.21875
8.3775	-2.721875	3.4375
8.38	-2.607813	22.59375
8.3825	-2.484375	38.125
8.385	-2.364063	31.875
8.3875	-2.259375	10.5
8.39	-2.179688	-4.8125
8.3925	-2.13125	-5.125
8.395	-2.109375	0.75
8.3975	-2.1	1.65625
8.4	-2.1	-3.21875
8.4025	-2.1	-4.78125
8.405	-2.096875	-1.3125
8.4075	-2.082813	-0.90625
8.41	-2.059375	-1.3125
8.4125	-2.028125	2.4375
8.415	-1.992188	1.21875
8.4175	-1.960938	-12.28125
8.42	-1.945312	-29.9375
8.4225	-1.953125	-36.09375
8.425	-1.9875	-23.46875
8.4275	-2.042188	6.0625
8.43	-2.10625	57.5
8.4325	-2.173437	139.4688
8.435	-2.2375	255.0312
8.4375	-2.289062	403.5938
8.44	-2.314062	564.6875
8.4425	-2.304688	698.9688
8.445	-2.253125	788
8.4475	-2.171875	840.125
8.45	-2.073438	863.1562
8.4525	-1.975	861.6562
8.455	-1.89375	834.3438
8.4575	-1.848438	768.9688
8.46	-1.85	662.7188
8.4625	-1.895313	526.8438
8.465	-1.965625	377.5938
8.4675	-2.046875	241.4062
8.47	-2.125	144.125
8.4725	-2.189062	84.78125
8.475	-2.239063	46.125
8.4775	-2.276563	20.25
8.48	-2.296875	5.75
8.4825	-2.303125	-2.625
8.485	-2.3	-11.875
8.4875	-2.296875	-22.0625
8.49	-2.304688	-31.65625
8.4925	-2.320312	-42.59375
8.495	-2.33125	-51.96875
8.4975	-2.323438	-55.46875
8.5	-2.290625	-62.28125
8.5025	-2.234375	-77.40625
8.505	-2.15625	-85.71875
8.5075	-2.057813	-78.375
8.51	-1.945312	-68.5625
8.5125	-1.826563	-70.28125
8.515	-1.710938	-78.71875
8.5175	-1.609375	-84.21875
8.52	-1.53125	-84.9375
8.5225	-1.482813	-81.15625
8.525	-1.467188	-75.875
8.5275	-1.48125	-75.28125
8.53	-1.51875	-78.5625
8.5325	-1.567188	-79.90625
8.535	-1.623438	-79.9375
8.5375	-1.684375	-79.5625
8.54	-1.742188	-77.5625
8.5425	-1.798438	-72.3125
8.545	-1.851562	-62.3125
8.5475	-1.9	-59.34375
8.55	-1.942188	-72.78125
8.5525	-1.979688	-85.78125
8.555	-2.010938	-81.75
8.5575	-2.032812	-70.5625
8.56	-2.045313	-66.03125
8.5625	-2.039062	-68.84375
8.565	-2.001562	-71.8125
8.5675	-1.928125	-67.71875
8.57	-1.825	-60.1875
8.5725	-1.709375	-57.21875
8.575	-1.596875	-58.53125
8.5775	-1.5	-59.8125
8.58	-1.426563	-58.21875
8.5825	-1.382812	-54.5625
8.585	-1.38125	-51.375
8.5875	-1.426563	-48.625
8.59	-1.510938	-47.46875
8.5925	-1.623438	-47.9375
8.595	-1.746875	-47.1875
8.5975	-1.86875	-43.75
8.6	-1.975	-40.15625
8.6025	-2.057813	-38.28125
8.605	-2.103125	-38.125
8.6075	-2.103125	-37.21875
8.61	-2.0625	-33
8.6125	-1.979688	-27
8.615	-1.84375	-22.625
8.6175	-1.61875	-16.625
8.62	-1.265625	-8.03125
8.6225	-0.7375	-8.09375
8.625	0	-16.75
8.6275	0.96875	-16.375
8.63	2.184375	-4.6875
8.6325	3.653125	3.28125
8.635	5.36875	2.5
8.6375	7.315625	-1.1875
8.64	9.46875	-3.84375
8.6425	11.79688	-4.34375
8.645	14.24063	-3.125
8.6475	16.73594	-3.09375
8.65	19.22656	-5.15625
8.6525	21.68906	-5.65625
8.655	24.10938	2.21875
8.6575	26.47813	16.9375
8.66	28.775	28.78125
8.6625	30.95938	33.90625
8.665	32.99063	35.90625
8.6675	34.82344	33.8125
8.67	36.41562	25.5625
8.6725	37.72031	18.03125
8.675	38.69219	20.03125
8.6775	39.30313	33.15625
8.68	39.5375	49.3125
8.6825	39.38281	57.6875
8.685	38.82812	54.59375
8.6875	37.87031	50.625
8.69	36.52656	58.53125
8.6925	34.84531	72.5
8.695	32.89531	79.375
8.6975	30.74844	78.5625
8.7	28.46094	76.9375
8.7025	26.08594	76.46875
8.705	23.66719	77.40625
8.7075	21.24688	80.8125
8.71	18.86875	89.28125
8.7125	16.56563	100.1562
8.715	14.36875	103.375
8.7175	12.3	97.78125
8.72	10.37656	96.53125
8.7225	8.617188	108.0938
8.725	7.035938	122.9062
8.7275	5.6375	127.8125
8.73	4.421875	122.9688
8.7325	3.392188	117.1875
8.735	2.542188	112.2812
8.7375	1.865625	106.8125
8.74	1.348438	103.5938
8.7425	0.9828125	103.4688
8.745	0.7625	101.6562
8.7475	0.68125	96.125
8.75	0.734375	89.75
8.7525	0.9109375	81.59375
8.755	1.196875	72.96875
8.7575	1.578125	72.5625
8.76	2.039062	76.0625
8.7625	2.567188	64.375
8.765	3.146875	37.125
8.7675	3.7625	14.5
8.77	4.395313	3.65625
8.7725	5.029688	-3.09375
8.775	5.6625	-7.3125
8.7775	6.285938	-4.96875
8.78	6.889063	1.65625
8.7825	7.46875	4
8.785	8.020313	-7.875
8.7875	8.534375	-33.34375
8.79	9.00625	-52.71875
8.7925	9.429688	-50.59375
8.795	9.80625	-37.4375
8.7975	10.13438	-29.53125
8.8	10.41719	-27.71875
8.8025	10.65156	-27.0625
8.805	10.83281	-28.9375
8.8075	10.95312	-32.4375
8.81	11.00625	-32.59375
8.8125	10.9875	-32.03125
8.815	10.88594	-35.25
8.8175	10.68906	-38.59375
8.82	10.38906	-37.3125
8.8225	9.976562	-34.4375
8.825	9.446875	-32.15625
8.8275	8.801563	-27.59375
8.83	8.039062	-23.65625
8.8325	7.160938	-26.375
8.835	6.175	-33.1875
8.8375	5.092188	-38.96875
8.84	3.926563	-43.09375
8.8425	2.690625	-43.75
8.845	1.390625	-42.03125
8.8475	0.028125	-43.4375
8.85	-1.389063	-46.65625
8.8525	-2.8625	-46.9375
8.855	-4.390625	-41.875
8.8575	-5.964063	-32.3125
8.86	-7.575	-24.90625
8.8625	-9.19375	-24.0625
8.865	-10.78125	-25.96875
8.8675	-12.29531	-23.5
8.87	-13.70312	-17.09375
8.8725	-14.99531	-12.34375
8.875	-16.17031	-12.96875
8.8775	-17.225	-15.8125
8.88	-18.14688	-15.875
8.8825	-18.92031	-13.8125
8.885	-19.5375	-11.875
8.8875	-20.00156	-15.59375
8.89	-20.32656	-28.78125
8.8925	-20.51875	-40.59375
8.895	-20.57188	-40.03125
8.8975	-20.48281	-34.6875
8.9	-20.25	-32.8125
8.9025	-19.87969	-29.9375
8.905	-19.38125	-23.59375
8.9075	-18.775	-17.34375
8.91	-18.08281	-11.5625
8.9125	-17.32031	-8.4375
8.915	-16.49844	-12.875
8.9175	-15.62969	-23.40625
8.92	-14.73281	-32
8.9225	-13.82344	-32.5625
8.925	-12.91094	-22.90625
8.9275	-12.00313	-6.71875
8.93	-11.1125	2.53125
8.9325	-10.25	-2.5
8.935	-9.428125	-15.09375
8.9375	-8.660938	-27.625
8.94	-7.960938	-37.84375
8.9425	-7.329688	-40.65625
8.945	-6.765625	-33.15625
8.9475	-6.270313	-24.3125
8.95	-5.8375	-21
8.9525	-5.473438	-18.90625
8.955	-5.176563	-15.46875
8.9575	-4.946875	-13.78125
8.96	-4.770313	-15.0625
8.9625	-4.639063	-18.53125
8.965	-4.548438	-24.15625
8.9675	-4.492188	-29.40625
8.97	-4.467188	-29.34375
8.9725	-4.467188	-24.375
8.975	-4.482813	-19.78125
8.9775	-4.507812	-17
8.98	-4.534375	-16.15625
8.9825	-4.560938	-21.25
8.985	-4.582813	-30.0625
8.9875	-4.601562	-34.28125
8.99	-4.615625	-33.5
8.9925	-4.621875	-29.875
8.995	-4.621875	-25.84375
8.9975	-4.621875	-29.3125
9	-4.629688	-37.875
9.0025	-4.654688	-39.34375
9.005	-4.7125	-32.28125
9.0075	-4.80625	-28.09375
9.01	-4.929688	-33.5
9.0125	-5.06875	-44.25
9.015	-5.2125	-50.78125
9.0175	-5.353125	-50.375
9.02	-5.4875	-46.46875
9.0225	-5.615625	-40.375
9.025	-5.735938	-35.34375
9.0275	-5.846875	-32.65625
9.03	-5.945312	-27.46875
9.0325	-6.028125	-21.03125
9.035	-6.096875	-22.1875
9.0375	-6.15	-30.96875
9.04	-6.189063	-38.03125
9.0425	-6.220313	-39.0625
9.045	-6.245313	-35.78125
9.0475	-6.2625	-29.96875
9.05	-6.26875	-26.96875
9.0525	-6.260938	-31.78125
9.055	-6.240625	-38.5625
9.0575	-6.207813	-38.46875
9.06	-6.164062	-32.375
9.0625	-6.10625	-25.4375
9.065	-6.034375	-20.625
9.0675	-5.948438	-20.15625
9.07	-5.851562	-22.09375
9.0725	-5.75	-22.03125
9.075	-5.646875	-20.25
9.0775	-5.546875	-19.96875
9.08	-5.45	-22.34375
9.0825	-5.354688	-25.5625
9.085	-5.254688	-28.25
9.0875	-5.154688	-29.53125
9.09	-5.05625	-28.09375
9.0925	-4.960938	-24.21875
9.095	-4.86875	-20.15625
9.0975	-4.775	-18.125
9.1	-4.678125	-18.1875
9.1025	-4.585938	-18.34375
9.105	-4.507812	-17.65625
9.1075	-4.448437	-17.28125
9.11	-4.404688	-17.59375
9.1125	-4.364063	-19.28125
9.115	-4.31875	-20.75
9.1175	-4.260937	-17.65625
9.12	-4.1875	-11.6875
9.1225	-4.103125	-9.3125
9.125	-4.0125	-12.34375
9.1275	-3.917188	-17.4375
9.13	-3.8125	-20.84375
9.1325	-3.690625	-21.46875
9.135	-3.55625	-21.3125
9.1375	-3.417188	-21
9.14	-3.282813	-17.96875
9.1425	-3.160938	-14.9375
9.145	-3.05	-16.09375
9.1475	-2.95	-17.0625
9.15	-2.864063	-16.53125
9.1525	-2.790625	-20.5
9.155	-2.729688	-26.6875
9.1575	-2.676563	-26.9375
9.16	-2.628125	-20.9375
9.1625	-2.576563	-12.375
9.165	-2.51875	-5.625
9.1675	-2.459375	-5.3125
9.17	-2.407813	-9.65625
9.1725	-2.373438	-12.9375
9.175	-2.360937	-10.25
9.1775	-2.367188	-3.34375
9.18	-2.385938	-0.78125
9.1825	-2.410938	-8.28125
9.185	-2.442188	-19.53125
9.1875	-2.476562	-19.78125
9.19	-2.510938	-7.78125
9.1925	-2.534375	2.65625
9.195	-2.534375	2.96875
9.1975	-2.504688	-6
9.2	-2.446875	-22.03125
9.2025	-2.371875	-35.84375
9.205	-2.2875	-39.4375
9.2075	-2.207813	-32.4375
9.21	-2.134375	-15.15625
9.2125	-2.075	0.375
9.215	-2.032812	-0.5
9.2175	-2.007812	-13.28125
9.22	-2.001562	-23.8125
9.2225	-2.009375	-27.8125
9.225	-2.035938	-26.15625
9.2275	-2.079687	-21.71875
9.23	-2.132812	-18.21875
9.2325	-2.1875	-13.75
9.235	-2.235937	-7.15625
9.2375	-2.279688	-0.125
9.24	-2.320312	8.625
9.2425	-2.364063	19.28125
9.245	-2.409375	26.8125
9.2475	-2.454688	30.59375
9.25	-2.5	35.75
9.2525	-2.546875	43.53125
9.255	-2.592188	48.40625
9.2575	-2.63125	47.375
9.26	-2.659375	50.90625
9.2625	-2.673438	63.4375
9.265	-2.675	68.875
9.2675	-2.66875	56
9.27	-2.657813	34.59375
9.2725	-2.648438	20.0625
9.275	-2.640625	16.65625
9.2775	-2.634375	14.40625
9.28	-2.629688	5.1875
9.2825	-2.629688	-4.1875
9.285	-2.635938	-9.125
9.2875	-2.648438	-14.4375
9.29	-2.659375	-21.40625
9.2925	-2.664062	-26.75
9.295	-2.660938	-27.75
9.2975	-2.648438	-26.71875
9.3	-2.625	-26.8125
9.3025	-2.592188	-26.25
9.305	-2.546875	-25.1875
9.3075	-2.49375	-25.5625
9.31	-2.434375	-23.4375
9.3125	-2.371875	-15.59375
9.315	-2.309375	-8.71875
9.3175	-2.25	-9.8125
9.32	-2.2	-18.65625
9.3225	-2.1625	-29.4375
9.325	-2.140625	-37.0625
9.3275	-2.134375	-43.8125
9.33	-2.14375	-54.875
9.3325	-2.159375	-67.3125
9.335	-2.175	-71.71875
9.3375	-2.1875	-58.84375
9.34	-2.203125	-19.5625
9.3425	-2.217188	53.0625
9.345	-2.228125	162.6562
9.3475	-2.23125	307.5938
9.35	-2.225	471.5
9.3525	-2.217188	627.1562
9.355	-2.210938	751.75
9.3575	-2.20625	828.9688
9.36	-2.20625	855
9.3625	-2.207813	849.4375
9.365	-2.207813	828.0312
9.3675	-2.196875	778.9062
9.37	-2.175	689.0625
9.3725	-2.146875	561.3438
9.375	-2.125	410.9688
9.3775	-2.114063	267.2188
9.38	-2.109375	159.25
9.3825	-2.10625	89.96875
9.385	-2.104688	44.21875
9.3875	-2.1	14.15625
9.39	-2.0875	-2.4375
9.3925	-2.06875	-12
9.395	-2.042188	-22.90625
9.3975	-2.014063	-36.28125
9.4	-1.989063	-47.40625
9.4025	-1.970313	-53
9.405	-1.959375	-55.15625
9.4075	-1.95625	-57.5
9.41	-1.960938	-59.0625
9.4125	-1.973438	-60
9.415	-1.985938	-62.5625
9.4175	-1.998438	-66
9.42	-2.010938	-68.09375
9.4225	-2.03125	-67.5625
9.425	-2.0625	-66.5625
9.4275	-2.104688	-65.75
9.43	-2.153125	-62.09375
9.4325	-2.19375	-57.46875
9.435	-2.226562	-57.75
9.4375	-2.254688	-60.8125
9.44	-2.278125	-60.3125
9.4425	-2.29375	-56.15625
9.445	-2.3	-49.84375
9.4475	-2.292188	-43.09375
9.45	-2.265625	-42.125
9.4525	-2.21875	-48.84375
9.455	-2.15625	-53.46875
9.4575	-2.089063	-45.75
9.46	-2.023438	-28.71875
9.4625	-1.95625	-18.09375
9.465	-1.879688	-26.78125
9.4675	-1.795313	-45.625
9.47	-1.70625	-52.6875
9.4725	-1.629688	-44.78125
9.475	-1.575	-33
9.4775	-1.546875	-22.75
9.48	-1.548438	-16.28125
9.4825	-1.575	-13.1875
9.485	-1.625	-12.28125
9.4875	-1.692188	-19.15625
9.49	-1.771875	-29.90625
9.4925	-1.851562	-27.625
9.495	-1.921875	-13.46875
9.4975	-1.975	-3.5
9.5	-2.007812	0.28125
9.5025	-2.026563	6.46875
9.505	-2.039062	16.15625
9.5075	-2.051563	21.875
9.51	-2.059375	19.3125
9.5125	-2.064062	16.5625
9.515	-2.060938	20.15625
9.5175	-2.04375	24.5625
9.52	-2.003125	28.34375
9.5225	-1.923438	31.03125
9.525	-1.79375	28.84375
9.5275	-1.585938	27.8125
9.53	-1.275	34.625
9.5325	-0.859375	43.4375
9.535	-0.34375	48.3125
9.5375	0.284375	47.375
9.54	1.053125	40.53125
9.5425	1.976562	35.09375
9.545	3.0625	36.71875
9.5475	4.334375	42.5
9.55	5.828125	48.78125
9.5525	7.55	54.78125
9.555	9.489063	59.875
9.5575	11.62031	62.125
9.56	13.89375	63.75
9.5625	16.23438	70.9375
9.565	18.57969	81.5625
9.5675	20.9	86.4375
9.57	23.18906	87.09375
9.5725	25.42969	90.15625
9.575	27.59219	95.59375
9.5775	29.62813	102.4375
9.58	31.49219	108.4375
9.5825	33.14531	106.625
9.585	34.55469	99.4375
9.5875	35.68906	100.125
9.59	36.5125	109.7812
9.5925	36.98906	116.875
9.595	37.08594	119.5
9.5975	36.78438	126.1875
9.6	36.08281	136.3438
9.6025	34.99844	140.5
9.605	33.56406	137.7812
9.6075	31.82344	137.4375
9.61	29.84219	143.3125
9.6125	27.68906	151.5625
9.615	25.43438	157.1562
9.6175	23.14062	157.6562
9.62	20.85625	156.0625
9.6225	18.62031	161.1875
9.625	16.45	173.8438
9.6275	14.35625	182.1875
9.63	12.34219	182.2188
9.6325	10.41875	182.6562
9.635	8.603125	188.0625
9.6375	6.901563	196.2188
9.64	5.326563	203.75
9.6425	3.882812	204.375
9.645	2.58125	197.7812
9.6475	1.429688	191.3125
9.65	0.43125	185.5625
9.6525	-0.415625	178.4062
9.655	-1.114062	173.1875
9.6575	-1.671875	172.125
9.66	-2.092188	175.125
9.6625	-2.36875	180.0625
9.665	-2.503125	177.9375
9.6675	-2.495313	162.7188
9.67	-2.35625	141.9062
9.6725	-2.098438	127.0625
9.675	-1.734375	122.4062
9.6775	-1.278125	122.25
9.68	-0.746875	118.4688
9.6825	-0.15625	109.8438
9.685	0.475	101.25
9.6875	1.1375	96.625
9.69	1.815625	94.5625
9.6925	2.498438	90.59375
9.695	3.176563	84.6875
9.6975	3.83125	79.28125
9.7	4.453125	73.03125
9.7025	5.028125	67.125
9.705	5.545313	66.4375
9.7075	5.996875	69.625
9.71	6.38125	69.09375
9.7125	6.7	60.8125
9.715	6.951563	51
9.7175	7.13125	46.90625
9.72	7.229688	47.59375
9.7225	7.2375	51.125
9.725	7.154688	57.125
9.7275	6.976562	62.34375
9.73	6.703125	67.25
9.7325	6.33125	73.84375
9.735	5.851562	73.25
9.7375	5.264063	59.65625
9.74	4.56875	45.84375
9.7425	3.770313	44.71875
9.745	2.873438	48.75
9.7475	1.889063	48.75
9.75	0.8265625	47.65625
9.7525	-0.3078125	48.21875
9.755	-1.501563	46.1875
9.7575	-2.753125	42.4375
9.76	-4.054688	42.125
9.7625	-5.401563	43.15625
9.765	-6.776563	43.28125
9.7675	-8.159375	45.28125
9.77	-9.53125	46.71875
9.7725	-10.87188	43.75
9.775	-12.14688	44.15625
9.7775	-13.32344	55
9.78	-14.37344	66.65625
9.7825	-15.27813	64.84375
9.785	-16.03125	51.15625
9.7875	-16.63594	40.25
9.79	-17.1	40.1875
9.7925	-17.43594	45.96875
9.795	-17.64844	49.6875
9.7975	-17.74219	49.65625
9.8	-17.725	48.6875
9.8025	-17.59688	48.15625
9.805	-17.36094	46.71875
9.8075	-17.02031	44.15625
9.81	-16.575	41.46875
9.8125	-16.03906	38.4375
9.815	-15.42188	34.09375
9.8175	-14.73906	31.15625
9.82	-14.00469	32.1875
9.8225	-13.23594	34.25
9.825	-12.44531	35.25
9.8275	-11.64688	36.125
9.83	-10.85156	35.375
9.8325	-10.06875	30.875
9.835	-9.309375	25.34375
9.8375	-8.58125	24.125
9.84	-7.892188	27.9375
9.8425	-7.240625	33.28125
9.845	-6.628125	36.28125
9.8475	-6.057813	36.875
9.85	-5.5375	34.71875
9.8525	-5.078125	30.84375
9.855	-4.6875	29.5625
9.8575	-4.365625	29.90625
9.86	-4.115625	26.59375
9.8625	-3.932813	20.9375
9.865	-3.80625	17.5625
9.8675	-3.726562	14.875
9.87	-3.684375	15.3125
9.8725	-3.664062	24.71875
9.875	-3.65625	35.75
9.8775	-3.648438	33.53125
9.88	-3.632812	18.625
9.8825	-3.607813	4.65625
9.885	-3.579688	2.75
9.8875	-3.55625	11.625
9.89	-3.54375	19.09375
9.8925	-3.54375	16.59375
9.895	-3.554688	10
9.8975	-3.575	6.375
9.9	-3.6	3.3125
9.9025	-3.635938	-0.625
9.905	-3.689063	-3.59375
9.9075	-3.760938	-3.9375
9.91	-3.848438	-2.40625
9.9125	-3.945312	-0.65625
9.915	-4.054688	-0.40625
9.9175	-4.18125	-2.25
9.92	-4.326563	-4.40625
9.9225	-4.489063	-6.0625
9.925	-4.654688	-5.65625
9.9275	-4.810938	-3
9.93	-4.945312	-1.84375
9.9325	-5.05625	-5.03125
9.935	-5.142188	-9.53125
9.9375	-5.210938	-12.3125
9.94	-5.267188	-11.59375
9.9425	-5.3125	-5.8125
9.945	-5.345313	-0.5
9.9475	-5.35625	-1.09375
9.95	-5.348438	-8.65625
9.9525	-5.328125	-18.28125
9.955	-5.3	-22.71875
9.9575	-5.264063	-19.90625
9.96	-5.220313	-11.78125
9.9625	-5.171875	0.3125
9.965	-5.114063	8.9375
9.9675	-5.042188	4.34375
9.97	-4.9625	-8.875
9.9725	-4.884375	-17.8125
9.975	-4.810938	-16.59375
9.9775	-4.746875	-9.5
9.98	-4.69375	-3.5625
9.9825	-4.65	-5.0625
9.985	-4.615625	-16
9.9875	-4.589062	-30.34375
9.99	-4.571875	-35.21875
9.9925	-4.554688	-22.21875
9.995	-4.529688	0.21875
9.9975	-4.4875	12
10	-4.428125	4.84375
10.0025	-4.360938	-9.84375
10.005	-4.290625	-20.09375
10.0075	-4.220313	-20.1875
10.01	-4.151562	-8.375
10.0125	-4.078125	3.84375
10.015	-4	0.25
10.0175	-3.915625	-12.21875
10.02	-3.825	-17.65625
10.0225	-3.729688	-18.3125
10.025	-3.625	-20.625
10.0275	-3.504688	-20.96875
10.03	-3.370313	-16.6875
10.0325	-3.23125	-12.15625
10.035	-3.10625	-12.34375
10.0375	-3.004688	-17.21875
10.04	-2.932813	-20.90625
10.0425	-2.885938	-20.09375
10.045	-2.85625	-17.75
10.0475	-2.835938	-14
10.05	-2.821875	-9.375
10.0525	-2.80625	-11.90625
10.055	-2.7875	-19.6875
10.0575	-2.76875	-20.09375
10.06	-2.745313	-11.71875
10.0625	-2.714063	-4.4375
10.065	-2.68125	-4.125
10.0675	-2.654688	-8.46875
10.07	-2.640625	-10.09375
10.0725	-2.639063	-6.84375
10.075	-2.64375	-3.25
10.0775	-2.648438	-1.46875
10.08	-2.646875	-1.40625
10.0825	-2.6375	-0.40625
10.085	-2.620313	2.78125
10.0875	-2.592188	4.1875
10.09	-2.548438	2.78125
10.0925	-2.489063	3.75
10.095	-2.41875	7.75
10.0975	-2.346875	12.375
10.1	-2.28125	15.3125
10.1025	-2.225	14.15625
10.105	-2.179688	17.59375
10.1075	-2.139063	25.71875
10.11	-2.107813	21.96875
10.1125	-2.082813	8.25
10.115	-2.064062	2.1875
10.1175	-2.05	0.21875
10.12	-2.039062	-7.1875
10.1225	-2.035938	-12.59375
10.125	-2.042188	-10.59375
10.1275	-2.064062	-2.21875
10.13	-2.1	9.3125
10.1325	-2.146875	20.03125
10.135	-2.201563	26.8125
10.1375	-2.25625	25.9375
10.14	-2.310938	17.75
10.1425	-2.360937	12.9375
10.145	-2.40625	19.6875
10.1475	-2.440625	30.5625
10.15	-2.464063	34.5625
10.1525	-2.476562	34.25
10.155	-2.479688	38.3125
10.1575	-2.476562	50.09375
10.16	-2.459375	67.84375
10.1625	-2.43125	82.8125
10.165	-2.39375	82.625
10.1675	-2.35	67.3125
10.17	-2.307813	52.9375
10.1725	-2.267187	50.125
10.175	-2.228125	51.40625
10.1775	-2.19375	47.6875
10.18	-2.160938	45.65625
10.1825	-2.129688	48.46875
10.185	-2.096875	41.1875
10.1875	-2.067188	17.9375
10.19	-2.046875	-6.9375
10.1925	-2.0375	-19.5
10.195	-2.034375	-16.34375
10.1975	-2.034375	-4.9375
10.2	-2.0375	0.96875
10.2025	-2.051563	-3.4375
10.205	-2.085938	-11.78125
10.2075	-2.14375	-17.59375
10.21	-2.217188	-15.46875
10.2125	-2.29375	-7.03125
10.215	-2.359375	-2.96875
10.2175	-2.40625	-5.65625
10.22	-2.43125	-7.625
10.2225	-2.432813	-7.1875
10.225	-2.4125	-9.3125
10.2275	-2.371875	-14.71875
10.23	-2.309375	-18.5
10.2325	-2.234375	-16.59375
10.235	-2.153125	-14.8125
10.2375	-2.078125	-21.15625
10.24	-2.020313	-27.0625
10.2425	-1.985938	-19.03125
10.245	-1.973438	5.1875
10.2475	-1.979688	47.65625
10.25	-1.995313	120
10.2525	-2.0125	229.4688
10.255	-2.023438	369.75
10.2575	-2.023438	529.4375
10.26	-2.014063	688.9062
10.2625	-1.992188	818.0938
10.265	-1.957813	900.5625
10.2675	-1.914062	943.25
10.27	-1.871875	952.5938
10.2725	-1.84375	923.625
10.275	-1.835938	855.5
10.2775	-1.84375	755.5625
10.28	-1.860938	626.625
10.2825	-1.879688	474.5
10.285	-1.895313	327.25
10.2875	-1.90625	219.9062
10.29	-1.907813	155.6875
10.2925	-1.9	114.4062
10.295	-1.882812	87.6875
10.2975	-1.859375	76.90625
10.3	-1.825	76.84375
10.3025	-1.782813	73.90625
10.305	-1.734375	56.9375
10.3075	-1.684375	32.71875
10.31	-1.634375	18.8125
10.3125	-1.589063	19.40625
10.315	-1.548438	23.84375
10.3175	-1.514063	23.34375
10.32	-1.482813	16.59375
10.3225	-1.45625	6.71875
10.325	-1.4375	-1.3125
10.3275	-1.429688	-7.25
10.33	-1.440625	-12.75
10.3325	-1.475	-14.90625
10.335	-1.526563	-12.25
10.3375	-1.5875	-10.84375
10.34	-1.648438	-12.78125
10.3425	-1.710938	-11.4375
10.345	-1.779688	-6.59375
10.3475	-1.85625	-3.4375
10.35	-1.935938	0.125
10.3525	-2.014063	6.46875
10.355	-2.0875	10.5
10.3575	-2.145313	9.40625
10.36	-2.184375	6.59375
10.3625	-2.195312	6.46875
10.365	-2.178125	8.5625
10.3675	-2.13125	7
10.37	-2.0625	-0.78125
10.3725	-1.985938	-9.3125
10.375	-1.910938	-10.21875
10.3775	-1.842188	-2.34375
10.38	-1.785938	4.21875
10.3825	-1.739063	0.90625
10.385	-1.701563	-6.34375
10.3875	-1.673438	-8.875
10.39	-1.654688	-5.21875
10.3925	-1.639063	2.90625
10.395	-1.620313	11.15625
10.3975	-1.596875	18.84375
10.4	-1.571875	24.8125
10.4025	-1.551563	20.4375
10.405	-1.546875	12.03125
10.4075	-1.560938	17.375
10.41	-1.598438	27
10.4125	-1.665625	21.6875
10.415	-1.764063	10.375
10.4175	-1.889063	9.125
10.42	-2.035938	16.65625
10.4225	-2.190625	22.4375
10.425	-2.334375	20.8125
10.4275	-2.440625	16.5
10.43	-2.485938	17.125
10.4325	-2.453125	23.0625
10.435	-2.334375	30
10.4375	-2.11875	35.75
10.44	-1.79375	42.09375
10.4425	-1.340625	46.59375
10.445	-0.740625	43.21875
10.4475	0.021875	38.0625
10.45	0.9640625	41.90625
10.4525	2.095312	49.03125
10.455	3.420313	48.6875
10.4575	4.948438	45.125
10.46	6.670313	48.625
10.4625	8.567188	56
10.465	10.62344	59.5
10.4675	12.79844	59.6875
